"","Row.names","DCAF13","DDX21","DHX37","DKC1","EBNA1BP2","EMG1","EXOSC2","EXOSC5","EXOSC6","EXOSC9","FAU","FBL","FTSJ3","GAR1","GNL3","HEATR1","HSD17B10","IMP4","NAT10","NHP2","NIP7","NOB1","NOL6","NOP10","NOP14","NOP2","PDCD11","PES1","PNO1","PWP2","RCL1","RPL10A","RPL10L","RPL12","RPL13","RPL13A","RPL17","RPL18","RPL18A","RPL21","RPL22L1","RPL23A","RPL24","RPL27","RPL27A","RPL28","RPL29","RPL3","RPL31","RPL32","RPL34","RPL35","RPL35A","RPL36","RPL36A","RPL36AL","RPL37A","RPL38","RPL39","RPL39L","RPL3L","RPL41","RPL7","RPL7A","RPL9","RPLP0","RPLP1","RPLP2","RPP40","RPS10","RPS11","RPS12","RPS13","RPS14","RPS15","RPS15A","RPS16","RPS17","RPS18","RPS19","RPS2","RPS21","RPS23","RPS24","RPS25","RPS26","RPS27","RPS27A","RPS3","RPS3A","RPS4X","RPS5","RPS6","RPS7","RPS9","RPSA","RRP1","RRP9","TEX10","THUMPD1","TRMT112","UTP14A","UTP20","UTP3","WDR3","WDR43","WDR46","EFS_fct"
"1","PAAPFA",7.141468,8.689832,7.446128,8.27426,7.253299,6.363886,8.611158,7.606634,8.788402,7.549508,8.482239,8.344299,8.533665,6.552811,8.216853,8.014485,8.087104,8.00733,8.668092,6.814049,8.215244,6.938354,7.48847,8.428992,7.433342,7.946765,8.00199,7.379294,6.477211,7.165204,7.252722,9.634085,5.883147,10.170684,8.825437,8.569523,8.843117,10.76991,8.948211,9.194093,5.053316,9.714414,8.062892,8.238175,9.259769,9.233003,9.429435,10.559461,7.713803,8.141598,8.354241,9.563127,9.089083,8.299764,7.377865,9.464121,9.218338,9.831203,9.375907,6.337033,6.804545,9.18346,8.638304,8.974019,10.00051,10.369588,9.498802,9.34815,5.325279,9.338107,10.347441,8.128224,9.961276,8.592415,10.218157,8.248306,10.245683,8.48373,9.841007,8.885286,9.559375,8.340168,9.150778,8.410718,9.765602,7.87887,8.879628,5.066003,10.274599,9.681025,10.186601,8.501387,9.785329,8.831205,8.321803,9.522703,7.527657,7.354099,7.946424,7.094347,9.903546,7.107864,7.064082,7.6558,7.819836,7.27051,7.50172,"EFS_L5"
"2","PACLJN",7.051416,7.779103,7.629068,7.770971,6.839631,5.84372,8.564918,7.547443,8.785768,7.078988,8.44974,8.416038,7.674284,6.2393,7.928152,7.847628,8.223578,8.073616,8.545141,7.318031,7.656644,7.267024,7.621675,8.70823,7.188084,7.443008,7.715769,7.520598,6.571563,7.146575,6.990984,9.770509,5.934035,10.219213,8.720278,8.201487,8.827803,10.835897,8.711434,9.517116,4.124845,8.927709,8.552054,8.108526,8.565084,9.710418,9.194369,10.430099,7.477478,7.438009,7.419901,9.754041,9.251362,8.141891,6.969161,9.05176,8.515322,9.259477,8.785145,6.033744,6.799602,8.665432,8.802638,8.629151,9.948962,10.518605,9.774145,9.099865,6.046184,9.558816,10.509904,8.344708,9.708309,8.966522,10.434617,7.964978,9.85705,8.363967,9.964305,8.876083,9.770066,7.831128,9.350308,8.033009,9.789465,8.2861,8.696022,5.192643,9.932735,9.397261,10.140854,8.946382,9.398757,7.781166,8.789838,9.589662,7.60243,7.355908,7.742064,6.974456,9.933149,7.690132,6.805962,7.303506,7.359499,7.78889,7.111669,"EFS_G5"
"4","PACRYY",6.87701,7.914378,7.547628,7.954174,6.848181,6.972399,9.030385,7.708918,8.658352,7.725154,8.447882,8.42559,8.273141,6.499911,8.253659,7.799374,8.318066,7.820095,8.931247,7.482693,8.045653,7.157,7.209847,8.21494,6.996174,8.095428,7.674327,7.34895,6.888262,6.857391,6.824243,9.618535,5.539157,10.006068,8.898424,8.128225,8.96418,10.660898,8.92895,9.614761,4.434164,9.500736,8.422971,7.706357,8.663635,9.665769,9.291229,10.389249,8.153028,7.931064,7.976166,9.403127,9.267255,7.888977,7.322415,9.264673,8.935489,9.693957,9.543497,6.226065,6.528351,9.338553,8.689882,8.915608,9.611111,10.447522,9.252704,8.876036,5.743458,9.665435,10.271583,8.423117,10.017071,8.877314,10.146416,8.542407,9.930017,8.302922,9.745115,8.595081,9.674075,8.111749,9.193629,8.488005,9.574235,8.216447,9.15053,5.330593,10.896544,9.745413,10.234083,9.050489,9.260135,8.551427,8.411775,9.758662,7.466136,7.013894,8.08018,6.880581,10.165266,7.563585,6.78113,7.677667,7.324643,7.46379,7.151206,"EFS_G5"
"5","PACRZM",7.297974,7.819473,7.58919,7.852935,6.797706,5.846136,8.498131,7.822867,8.903966,7.534122,8.335683,8.359998,8.016413,6.393137,8.219781,7.812394,8.792492,8.24037,8.045497,7.092235,7.823658,6.875024,7.353474,8.957363,7.285559,7.894847,7.403676,7.726237,6.982163,7.328217,5.911237,10.207056,6.193737,9.969318,8.919066,8.282634,9.1097,10.88124,9.029696,9.436332,5.434051,9.508969,8.318507,8.155799,8.550282,9.651377,9.207552,10.523601,7.897167,7.713442,7.731976,9.800146,9.295958,8.086451,7.347728,8.676613,9.055587,9.528758,9.606602,5.324044,7.14513,9.14584,8.968375,8.678736,10.194549,10.50214,9.527458,8.898108,5.945002,10.044899,10.459326,8.779875,9.810958,8.255938,10.252891,8.166881,9.867094,8.353058,9.825788,8.800881,9.869991,7.909296,9.227792,8.330959,9.189838,9.026911,9.021338,5.315682,10.266578,9.750186,10.308508,9.338256,9.453575,8.212955,8.705148,9.796767,7.596657,7.717882,7.687238,7.030216,9.725161,7.672897,6.095229,7.12081,7.367687,7.81482,7.632201,"EFS_L5"
"6","PACSNL",8.295397,9.350418,7.724838,8.382963,8.29391,7.537177,8.47399,8.623907,8.608547,7.860939,8.31009,8.487288,8.607447,7.671965,8.752504,8.893893,8.690416,8.634244,8.590405,7.638234,8.849853,7.33234,7.665841,8.540893,7.738325,8.517836,8.684478,7.603968,7.575228,7.382471,7.069189,9.851207,5.80357,10.222132,8.810844,8.28993,9.270955,10.792788,9.224928,9.366711,4.928852,9.647715,8.384311,8.384673,8.623462,9.988545,9.395365,10.54999,8.573928,8.121257,8.786959,9.342307,9.096887,8.172797,7.946323,9.134028,9.253193,9.12237,10.059497,5.226436,6.597046,9.45659,8.861445,8.410371,10.115566,10.394513,9.72236,8.960294,7.71922,9.580036,10.582632,8.742827,10.096009,8.876307,10.276181,8.412216,10.387788,8.82636,10.109209,8.907077,9.597781,8.805417,9.538938,8.640633,10.694802,9.021395,9.353399,5.577907,11.025978,9.668644,10.684766,9.523545,9.177506,8.515429,8.604732,9.924623,7.592958,7.842969,8.302836,7.017058,10.69004,8.378923,7.562582,8.684659,8.823763,7.26122,8.377008,"EFS_L5"
"7","PACSSR",6.680949,7.722734,7.639985,8.053602,6.703709,6.948355,8.182785,7.172531,8.443657,7.348801,7.251564,8.500813,7.357987,6.117138,8.14248,6.881208,7.498198,7.631895,7.935301,6.468548,7.168813,6.824385,6.717304,7.581313,7.841534,8.301526,7.958336,7.340787,6.119533,7.26985,6.484638,9.375508,6.27118,9.68097,8.382458,8.196943,8.501982,9.987318,8.534203,8.208369,4.508232,10.019165,8.241883,7.408278,7.903728,8.599951,8.179425,10.230665,8.182146,7.116572,7.133209,9.168546,7.912282,8.565437,7.253575,8.589352,8.113353,9.275025,9.272989,6.372199,7.513624,8.864717,8.742107,8.474543,8.798855,9.388096,9.490007,8.360385,4.914406,8.488805,10.241009,8.615359,7.710774,7.734046,9.55725,6.886649,9.268927,7.751975,9.728446,9.30517,8.920805,7.305942,7.294516,8.166505,9.795937,8.134183,8.328615,5.65429,9.785695,8.764559,9.641278,8.253398,9.284335,7.723665,8.15106,8.60325,7.914399,7.232277,6.618697,5.976551,7.544059,7.268188,6.500795,6.482784,6.406349,7.36351,6.912256,"EFS_L5"
"8","PACUGP",7.356157,8.509648,7.32487,8.111492,7.524632,6.744402,8.401126,8.012981,8.934795,7.452298,7.652688,8.745925,8.350922,6.986438,8.278485,8.345482,8.385821,8.111901,7.761229,7.127709,8.318142,6.663726,7.203559,8.85568,7.235152,7.923064,7.956076,7.247858,6.393415,7.149104,6.654957,9.859085,5.77728,10.188215,9.014698,8.360807,8.932477,10.827201,9.239165,9.696963,5.189426,10.007288,8.517981,8.396021,8.927369,9.587245,9.446659,10.578756,8.116857,7.667837,8.09458,9.743712,9.100053,8.261379,7.850178,9.433589,9.067632,9.55322,10.232755,5.483183,6.769572,9.718848,8.901043,8.77654,9.90559,10.367692,9.602287,8.966611,5.640307,9.545956,10.51887,8.771742,9.992901,8.651589,10.370496,8.312122,10.341495,8.637863,10.020849,8.896468,9.587312,8.675496,9.40849,8.349026,10.480432,8.687659,9.56944,5.123671,10.733618,9.891675,10.723982,9.514222,9.392573,8.572771,8.697994,9.836759,7.494138,7.154909,8.161679,6.937128,10.15157,7.413237,6.560728,7.873267,7.728786,7.3706,7.572439,"EFS_L5"
"9","PACVNB",6.833803,7.727914,7.400714,7.970048,7.170954,6.125617,8.776928,7.719321,8.880443,7.020872,8.03279,8.408488,7.575379,6.704712,8.365128,7.330528,8.083748,7.966172,7.967928,6.655769,7.225366,6.755032,7.425936,8.326777,7.317352,7.756745,7.548843,6.952866,6.677603,7.066645,6.871308,9.974023,6.110812,10.742095,8.88161,8.498485,8.994089,10.996176,9.181918,9.422871,5.417805,9.978861,8.614583,8.393137,8.41607,9.694079,10.067173,10.623077,8.122542,8.066575,7.959531,10.22204,9.257565,8.52598,7.458724,9.11962,9.005405,9.44149,10.396311,6.655,6.959897,9.279435,8.942559,9.19217,10.119832,10.655731,9.561996,8.887398,5.737618,10.018945,10.34805,8.700812,9.889511,8.681561,10.469754,8.036296,10.010333,8.401739,10.040602,9.01571,9.915619,7.787701,9.166388,8.630064,10.60687,8.694089,9.216686,5.627987,10.770313,9.871968,10.777334,9.453549,9.735884,8.132483,8.797003,9.984644,7.751911,7.337975,8.077694,6.668377,9.510077,7.043971,5.829934,7.595906,6.976724,7.58602,6.94927,"EFS_L5"
"10","PACYGY",6.356037,7.278373,7.344914,7.214823,6.401074,6.140321,8.382747,7.202178,8.861506,7.010845,8.433779,8.270556,7.61318,6.216093,7.680998,6.862218,7.778476,7.607735,8.212286,5.494656,7.225601,6.24347,6.881562,8.326397,6.789211,7.510469,7.14901,6.865481,6.316784,6.521826,6.559589,9.8259,5.919542,9.974415,8.324086,8.206109,8.571472,10.638387,8.97791,9.431996,4.525764,9.28724,7.782809,7.272973,8.427487,9.763721,9.035183,10.383629,7.123912,7.755157,7.644151,9.356936,8.817328,7.94833,6.557097,9.334353,8.181527,9.252053,8.875485,5.430532,7.132963,9.136801,8.401009,8.682276,9.714001,10.017316,9.314565,8.622923,4.811614,9.64475,9.703395,8.142435,9.181602,7.962766,10.119227,7.964044,10.024285,8.307701,9.557445,8.706423,9.60903,7.80384,8.714725,8.314016,9.045719,8.465471,8.714555,4.922095,9.93407,9.261889,10.141116,8.798016,9.104266,7.993313,8.592652,9.325065,7.064747,7.010307,7.38772,6.723144,9.436061,6.5869,6.119925,6.956997,6.33643,7.01595,6.839199,"EFS_L5"
"11","PACZPX",6.715634,7.302924,6.922913,7.520601,6.652754,6.008769,7.991232,7.146368,8.346554,7.861441,7.53774,8.336893,7.107864,6.6778,8.49997,8.023581,7.304652,7.295329,7.469764,6.555509,6.619957,6.488143,6.498509,7.642952,7.08075,7.004584,7.429474,6.777456,5.959918,6.06439,6.523851,9.700027,5.288997,9.650434,8.27868,8.231805,8.943122,10.420389,8.812874,9.378126,4.211546,9.966476,8.338494,7.690581,7.893086,9.102464,9.133946,10.248434,7.431958,7.606031,7.879034,9.024318,9.224812,7.695909,6.287636,9.095767,8.636532,9.074665,9.221249,6.511099,6.604553,9.382797,8.770184,8.596636,9.95703,10.047746,9.160054,8.017859,5.129609,9.369491,9.950699,8.753585,9.340986,8.27332,10.001363,7.717527,9.878323,8.029881,10.106823,8.805113,9.021301,7.675959,9.214279,8.376449,9.621327,8.731425,9.219008,5.018999,9.974053,9.909921,9.758092,8.806839,8.964946,7.798146,8.27979,9.866147,6.988609,6.793979,7.549725,6.458306,8.658286,6.722861,6.978971,7.754701,7.031622,8.34852,6.864147,"EFS_G5"
"12","PADENF",6.721305,7.464746,6.947276,7.655041,6.903197,6.08333,8.37678,7.553737,8.476646,7.597519,8.637218,8.445576,7.953361,5.874679,7.65108,8.340335,8.348467,7.73149,8.189391,6.629607,6.929628,6.597266,7.097792,8.882247,6.918346,7.627616,7.189345,6.873862,6.899333,6.8329,6.862331,9.977029,5.883518,10.391706,8.596905,8.492344,9.089237,11.088517,9.405974,9.864649,4.265791,9.903095,8.638184,8.119554,8.625694,9.924829,9.333135,10.594462,8.252042,7.592839,8.171175,10.061761,9.460891,8.468924,7.328497,9.446404,9.016373,10.18125,10.04261,6.672602,6.583137,9.428304,9.101355,8.969485,10.042625,10.543722,9.781057,8.901347,5.712982,9.913702,10.586517,8.955868,10.30155,8.997647,10.45436,8.821161,10.457472,8.543746,10.234167,9.475216,9.877282,8.178214,9.445367,8.464232,9.893449,8.806807,9.441099,5.286823,9.885568,9.817642,10.304904,9.833574,9.500868,8.518132,8.679819,9.514219,7.296409,6.833881,8.019667,7.300114,9.605163,6.91901,6.468088,7.199919,7.495764,7.63196,6.895946,"EFS_G5"
"13","PADFLI",7.284405,8.96506,7.872641,8.491089,6.877194,6.718111,9.002153,8.809622,8.192368,7.942217,9.04184,8.978271,8.083861,6.847078,8.727639,8.031828,8.587771,8.482243,8.826939,6.885474,7.515809,6.850192,7.696791,9.253635,7.788941,8.518711,8.51427,7.885108,6.906949,7.363253,7.133145,9.90353,6.63383,10.469367,8.740224,8.559268,9.211644,11.237092,9.678227,9.705134,6.12399,9.921494,8.992398,8.605011,8.73197,9.698347,9.362619,10.655706,7.515199,7.844251,8.251748,10.052975,9.193522,8.54953,7.51114,9.509263,8.874102,9.611305,9.568569,6.975155,7.087417,9.096224,9.127935,8.786059,10.477682,11.129417,9.992087,8.925947,6.379557,9.510825,10.503837,8.79519,10.330651,8.337949,10.555856,8.117237,10.579341,8.557181,9.702007,9.175226,9.933209,8.638653,9.372336,8.86158,10.134,8.92239,9.474089,5.205659,11.029075,9.867039,10.508055,9.814021,10.088072,8.409735,9.033312,10.18185,7.628824,7.903743,8.085742,6.958308,10.54741,8.061787,7.547968,7.275573,7.826946,7.97827,7.444056,"EFS_G5"
"14","PADHWC",6.649076,7.838982,7.092959,7.309946,6.544066,6.299659,7.796012,7.230512,8.438148,7.077991,7.664951,7.940676,7.257398,6.236108,7.628616,7.506869,8.159717,7.716964,7.851159,6.425615,7.455802,6.584488,7.022764,8.659702,6.848402,7.441775,7.281865,6.881537,6.108509,7.178887,6.488034,9.320924,6.060652,10.100262,8.189983,8.177775,8.569229,10.334566,8.544986,8.897282,5.023073,8.899482,8.171252,7.680137,7.734202,9.114807,8.725893,10.169264,7.517813,6.934913,7.567032,9.722955,8.779131,8.208706,6.708462,9.483883,8.014117,8.881863,9.166693,6.00984,6.955652,9.298465,8.978473,8.394325,9.56378,9.766124,9.494571,8.435931,5.339436,9.009621,9.626681,8.532635,8.940596,7.906667,9.928556,7.367285,9.768059,7.992084,9.755106,8.631255,9.205337,7.292707,8.524018,8.047818,9.574008,8.440254,8.814782,5.367816,10.031583,9.236945,9.868249,8.252855,8.897062,7.879536,8.737912,9.000983,7.19002,6.756492,7.106469,6.557448,10.074655,7.149994,6.523583,7.123399,6.596154,6.86989,6.713379,"EFS_L5"
"15","PADIEY",6.39081,7.341814,7.242749,8.339377,6.38125,6.49649,8.56935,7.351652,8.662765,7.170217,7.873376,8.182411,7.989958,5.844365,6.808082,7.980396,8.894476,7.410434,7.529791,6.830378,7.312384,6.461133,6.820924,8.371797,6.380555,7.549923,7.306275,7.372628,5.74742,7.027817,6.253134,9.545828,6.01658,9.684532,8.549916,8.21173,8.604923,10.558204,8.882532,9.125188,4.337249,9.127297,7.989218,7.874581,8.044729,9.485616,8.427143,10.426691,6.953444,7.143943,7.503929,9.373365,8.829414,7.832132,7.186865,9.135958,8.255403,9.697348,9.333835,6.008631,6.933281,8.960943,8.62957,8.585215,9.38995,9.694643,9.296337,8.768795,5.731903,9.353731,9.805455,8.32762,9.056376,7.849276,10.040357,7.747701,9.814323,7.943994,9.761298,8.78209,9.407956,7.306356,8.375874,7.957711,8.82158,8.19026,9.080375,4.620602,9.478878,9.044389,10.549358,8.627836,8.973232,7.773705,8.585554,8.39591,7.435889,7.014634,7.644104,7.097358,10.192001,7.118176,6.432306,6.812455,6.211933,6.89836,7.127421,"EFS_G5"
"16","PADIHC",6.889614,7.955524,7.983349,7.681513,7.237308,6.712634,8.804923,8.505247,8.731437,7.306606,8.318468,8.972072,7.984359,6.193503,7.645727,8.174647,8.587603,8.146046,8.281333,7.47083,7.602661,6.848109,7.712025,8.162825,6.969693,8.177103,7.458923,7.909435,6.893486,6.887034,7.091891,9.936985,6.53172,10.214426,8.892561,8.518754,9.020957,11.195114,9.400999,9.111482,4.453406,9.373421,8.526829,8.673146,8.199785,9.868847,8.827453,10.618619,7.797307,7.439375,8.063356,9.973523,9.275033,7.976961,7.313481,9.100036,8.931672,9.342422,9.713943,6.005645,7.157453,8.828534,8.867382,9.044966,10.300025,10.73239,9.532749,8.74118,6.335568,9.935615,10.474219,8.545368,9.428531,8.831075,10.481076,8.521563,10.458561,8.473564,9.859047,9.023186,9.921489,8.49291,9.161986,8.647324,10.02826,7.504421,9.03282,4.815072,10.715376,9.559789,10.232809,9.433748,9.443537,8.319671,8.889603,9.258515,6.968477,7.387907,8.034969,6.353466,10.14209,6.987589,6.781649,7.156105,7.403715,6.92384,7.450321,"EFS_L5"
"17","PADINC",6.58601,7.367949,7.670542,7.391489,6.82875,6.415304,8.349675,8.004677,8.469152,7.569864,8.348039,8.80863,7.232416,6.5163,8.622729,8.091924,8.037231,7.887399,8.045032,6.964554,7.372212,6.905831,7.200862,8.384562,7.523328,7.656232,7.466177,7.595335,6.354938,7.021395,7.213767,10.324042,5.838462,10.55152,9.179668,8.50308,9.439499,11.136599,9.641267,9.739777,4.875667,9.950905,9.150013,8.006801,8.749302,9.665707,10.197038,11.066226,8.468111,8.247829,8.236286,10.090769,9.708039,8.850523,7.298845,9.378707,8.935134,9.438962,10.054838,6.441351,6.617623,9.86521,9.253231,9.094402,10.451871,11.055619,10.055846,9.029715,5.161329,10.351627,10.537299,9.381414,9.983278,8.850716,10.64211,8.37658,10.472251,8.63655,10.427994,9.932387,9.755722,8.35394,9.502385,8.637179,10.20438,9.557931,9.699706,5.501783,10.751647,10.24087,10.252018,9.749443,10.048254,8.411235,9.086676,10.508946,7.463604,7.289735,7.73249,6.494172,9.50814,6.795029,7.273791,7.66226,7.340598,7.6712,7.112229,"EFS_L5"
"18","PADIRB",7.288849,8.859467,7.871553,8.004549,7.685284,6.618537,8.612392,8.772762,8.687549,7.519364,8.710386,8.401955,9.129183,6.785611,8.324829,8.804041,8.517186,9.097709,8.45455,7.580055,8.361818,8.125357,8.181037,9.15171,7.603403,8.19877,8.274803,7.967447,7.371951,7.932412,7.04616,10.044786,5.942895,10.469185,9.306349,8.585404,9.246528,11.110771,9.51015,9.479406,5.563404,9.800537,8.735404,8.661349,8.782189,9.784613,9.54433,10.49245,8.13721,7.954825,8.425786,10.166822,8.848419,8.387196,7.529321,9.163034,8.978035,9.653437,9.808223,6.262672,7.153145,9.424518,8.861377,8.580527,10.089633,10.701854,9.458939,9.265707,6.291333,9.897731,10.704393,8.798918,10.009779,8.685678,10.659093,8.209571,10.248161,8.451409,10.159223,9.047566,10.13214,8.353175,9.296603,8.096976,9.682585,8.848719,9.758977,5.605572,10.842939,9.816217,10.190055,10.107724,9.21522,8.331933,8.762502,9.78173,7.568265,7.906121,8.105876,7.508636,10.841349,8.138943,7.337488,7.989243,8.439256,8.5415,8.296996,"EFS_L5"
"19","PADKFS",6.762307,8.006196,7.104312,7.490652,6.549609,5.659932,8.566042,7.534058,8.72121,7.222693,8.097871,7.780351,7.436167,6.222506,8.23249,7.655448,8.46702,8.051972,8.108666,6.677036,7.843844,7.055219,7.083275,8.881017,6.850897,7.661501,7.527799,6.677176,6.453823,6.913131,6.997495,9.734043,5.77022,10.38662,8.919512,8.376411,8.962541,10.913083,8.805929,9.326238,5.243381,9.18495,8.311669,8.284109,8.72086,9.885131,9.400873,10.191249,7.742206,7.947101,7.997844,10.280405,9.038921,8.399984,7.099515,9.387828,8.648625,9.476345,9.653919,6.214817,6.856645,9.243312,8.964128,9.006157,10.071812,10.294896,9.389839,8.742737,5.725821,9.775858,10.228086,8.773572,9.85853,8.560791,10.405324,8.136685,10.083863,8.19385,9.996369,9.016673,9.768438,7.76369,9.312017,8.484015,9.73343,8.21518,9.112072,5.019039,9.947841,9.686391,10.351007,9.3045,9.295801,8.052778,8.871341,9.711708,7.117246,7.362286,7.444303,6.571551,9.843502,7.114696,6.007333,7.246891,7.255565,6.94499,7.12379,"EFS_L5"
"20","PADKFU",6.588509,7.698309,7.217654,7.595126,6.582616,6.136075,8.985893,7.490926,8.948827,7.1809,8.310776,8.055948,7.546895,5.679395,7.47066,7.402776,8.258725,7.575849,8.376625,6.774393,7.550792,6.794354,7.24873,8.424388,6.80395,7.628378,7.454073,7.177167,6.133,6.855952,6.763301,9.383486,5.843435,9.831246,8.954276,8.088116,8.5781,10.588754,8.716071,8.917981,4.820738,9.205418,8.37983,7.807788,8.546823,9.553039,9.001003,10.162895,7.631922,7.297231,7.608592,9.588826,9.06715,7.551044,6.889048,9.051021,8.260786,9.507255,9.167746,5.684614,6.625456,9.014742,8.535128,8.91906,9.593303,9.948191,9.566802,8.776891,5.175587,9.306557,9.919265,7.8711,9.324792,8.370756,10.071269,8.41882,9.842734,8.304218,9.515294,8.564083,9.482144,7.929842,9.329443,8.121958,9.26051,8.033168,8.713612,4.86769,9.641237,9.128871,9.931863,8.701944,9.300855,8.333468,8.448929,9.103683,7.32949,6.930259,8.062108,7.4683,9.662874,6.96228,6.782845,6.787485,6.56741,7.18055,6.809185,"EFS_G5"
"21","PADKGF",7.267037,8.331093,7.251567,8.128026,7.054611,7.065832,8.862849,8.337981,8.712569,7.931166,9.053222,8.988448,8.244203,6.481532,8.443519,7.885387,8.651532,8.425779,8.424626,7.357278,8.835851,7.844825,7.279889,9.542048,7.284667,7.909997,7.502159,7.657166,6.96037,7.276751,7.582642,10.562985,6.43278,11.161736,9.522405,8.94672,9.445276,11.273519,9.898263,10.360081,6.158701,10.248538,9.597058,9.143842,9.078103,9.793943,10.479285,11.119249,8.262935,8.150219,8.786189,10.740404,9.346195,8.930429,8.239746,10.563564,9.055941,9.827865,10.582157,6.779369,6.761955,10.088064,9.815531,9.42496,10.34155,11.049686,10.750299,9.386437,6.146425,10.342002,11.220157,9.333701,10.722867,9.445897,10.787224,9.019187,10.62656,9.007066,10.772913,10.120786,10.641834,8.602475,9.097811,8.757876,11.138617,8.39671,10.488217,6.175947,10.941841,10.473628,10.973984,10.15395,10.049112,8.772723,9.440011,10.560763,7.244355,7.410257,8.274829,7.441981,10.369169,7.959263,6.830046,8.044314,7.489688,7.75649,7.393532,"EFS_G5"
"22","PADKNE",6.917917,7.966043,7.817091,8.036856,7.090513,6.385136,9.159136,8.100849,8.926382,7.490684,8.696704,9.001934,8.111035,6.453492,8.465621,7.724877,8.664941,8.160408,8.743373,6.799112,8.270162,7.182485,7.280463,8.875812,7.444088,8.259211,7.643374,7.477818,6.457761,7.514922,7.064831,10.198296,6.54388,10.316371,9.042622,8.486418,9.503551,11.115685,9.233428,9.892906,4.742772,10.428959,8.864258,8.422844,9.240148,10.128378,9.851283,10.935516,7.857318,8.109567,7.946789,10.171021,9.511429,8.413403,7.569125,9.372407,9.066786,10.125577,10.075037,7.011217,6.717325,9.281717,9.191367,9.214333,10.453991,11.220388,10.026063,9.187106,4.732409,9.849956,10.67259,8.573596,10.410499,8.799293,9.970649,8.792934,10.442607,8.6184,9.974349,9.585938,10.019999,8.669132,9.420786,8.492944,9.609778,9.125811,9.354375,5.251383,10.466475,10.004159,10.522274,9.037433,9.721371,8.387885,8.821452,10.336176,7.204361,7.56949,8.378006,6.848809,10.351815,7.397006,7.112466,7.496669,7.467681,7.25289,7.090679,"EFS_L5"
"23","PADKRU",5.948395,7.634974,7.211272,7.242299,6.524474,6.096392,8.685183,7.349812,8.339132,7.16516,8.082209,8.087286,7.371091,6.191713,7.371526,7.09681,8.9189,7.449134,8.204154,6.292778,6.918153,6.195219,7.212928,7.561835,6.793673,7.579418,7.361219,6.997358,5.779652,6.798543,6.779101,8.957901,5.623707,9.643048,8.174082,8.075063,8.370909,10.522107,8.619072,8.253124,4.606967,8.81247,7.739989,7.592048,8.032584,9.49852,8.523922,10.204288,6.891321,7.403631,7.388686,9.435711,8.44433,7.695943,6.649848,8.914004,8.249471,9.45505,8.328761,5.646866,6.599654,8.610537,7.864681,8.582095,9.534941,9.548836,8.966356,8.844661,5.090749,8.952529,9.764687,8.044475,8.747489,7.903197,9.97421,7.83177,9.772423,8.113862,9.220641,8.157886,9.339058,7.348441,8.632106,8.277646,9.789157,7.518784,8.43032,5.498103,9.507044,8.724583,10.032841,8.198226,8.914007,7.610134,8.368785,8.795874,7.055765,6.908316,7.757914,6.709667,9.397045,6.520345,6.063675,6.733424,6.015324,6.34488,6.712593,"EFS_L5"
"24","PADKVV",6.427679,7.900484,7.29253,7.572416,6.441139,6.375804,7.966842,7.099028,8.536741,7.27,7.892294,8.431693,7.283126,6.036265,7.467179,7.429924,7.790209,7.448528,8.035732,6.409913,7.208627,6.642655,6.879203,8.065718,7.202164,7.63502,7.540203,6.961227,6.006242,7.144434,6.786947,9.917081,6.347308,10.303148,8.946362,8.598744,8.770418,10.652598,8.987892,9.623699,4.660256,9.297275,8.256814,7.901631,8.311294,9.466166,9.223028,10.249772,7.826439,7.622555,7.457087,9.702214,9.059789,8.39925,7.519956,9.556387,8.376495,9.494963,9.826186,6.300371,6.836571,9.400067,9.09743,8.789151,9.7565,10.169815,9.705668,9.107556,5.434087,9.557487,10.438063,9.089876,9.805828,8.610173,10.294454,8.093277,10.153842,8.283393,10.340674,9.394749,9.726255,7.757037,8.818383,8.441377,10.549347,8.543903,9.624799,5.687274,10.415669,9.909506,10.671127,8.912772,9.410731,8.171443,8.947711,9.683023,7.236524,6.906985,7.291481,7.194795,9.485176,7.024694,6.178951,7.679565,6.676835,6.23949,6.734582,"EFS_L5"
"25","PADKXS",7.25399,8.288703,7.806499,8.009889,7.322191,6.714135,9.309908,8.639962,9.102383,7.712207,8.530193,9.412075,7.31996,6.555118,8.370533,8.192894,8.855262,8.458966,8.278822,7.304279,7.807449,7.772268,7.467037,9.152727,8.344694,7.819387,7.532754,7.635186,7.189442,7.312686,7.17864,10.612976,6.263038,10.952804,9.346462,8.681687,9.501948,11.448164,9.733861,9.793726,6.327921,9.968683,9.339368,8.627379,8.849229,9.477222,10.471903,11.099893,8.169023,8.3016,8.033417,10.704987,9.717412,9.268201,7.5875,9.508939,9.003996,9.60788,10.554063,6.820563,6.997954,9.673487,9.382934,9.471957,10.527926,11.234999,10.570096,9.291599,6.316154,10.382329,11.129307,9.324574,10.476554,9.289879,10.963457,8.82956,10.48146,9.050445,10.663949,9.50339,10.492789,8.403049,10.042274,8.783714,10.554802,8.8929,9.964049,5.220962,11.16341,10.218908,11.02566,10.183297,10.193617,8.443529,9.306613,10.596936,7.45647,7.970959,8.518721,6.805367,10.346178,7.705035,6.951542,7.187018,7.811099,7.36465,7.527642,"EFS_L5"
"26","PADKYP",7.321168,8.362297,7.646007,7.836283,6.683203,6.354319,8.484196,8.55271,8.74525,7.55973,8.779896,9.120335,7.453809,6.257572,8.220334,7.510283,8.616152,8.317104,8.108397,6.818489,8.111722,7.588944,7.195289,9.71766,7.057908,7.556655,7.308066,7.149809,6.360181,7.300818,7.026722,10.747152,6.593735,10.899949,9.313019,8.926392,9.532264,11.334271,9.901168,10.086995,5.681456,10.139625,9.232189,8.827878,8.771332,9.885445,10.411027,11.06643,8.048595,8.195247,8.743374,10.417572,9.796599,9.220907,7.819379,10.149657,9.258681,9.81317,10.849781,7.027565,7.076392,10.062774,9.660822,9.219441,10.526664,11.056609,10.594023,9.180419,6.080906,10.538924,11.064343,9.504152,10.343496,9.378833,10.785438,8.668984,10.722585,9.00144,10.869024,9.98487,10.37467,8.792571,9.761587,8.63816,10.894727,9.331829,10.285151,5.563359,10.749704,10.399187,10.80685,10.241493,9.972203,8.543761,9.441254,10.292262,7.231619,7.626436,7.968752,7.038153,9.897867,7.365437,6.617574,7.28532,7.128936,10.187,7.454562,"EFS_L5"
"27","PADLDA",7.525557,8.443139,7.503835,7.914658,7.262696,6.411438,7.870753,8.185712,8.843104,7.375791,8.68118,9.001783,7.272471,6.539232,8.409623,7.583521,8.892807,8.259687,7.992519,6.501277,8.498348,7.002563,7.428875,9.686105,7.039817,8.168559,7.600569,7.41597,6.946231,7.197013,7.374319,10.680087,5.948533,10.762707,9.349686,8.915659,9.126787,11.181189,9.69442,10.107846,5.523245,10.045641,8.940852,8.588368,8.680307,9.842947,10.171399,11.176004,8.37624,8.137535,8.545868,10.561698,9.471648,9.07153,7.822372,10.478889,8.854282,9.512675,10.548135,5.54902,7.136524,10.047899,9.588819,9.08987,10.23378,10.742423,10.185613,9.22769,5.978301,10.482643,10.769124,9.411621,10.174879,9.285726,10.669226,8.37587,10.580332,8.907423,10.564825,9.824479,10.318334,8.634609,8.928361,8.859457,10.889061,8.153246,10.291515,5.950793,10.822716,10.328743,10.650892,9.920772,10.035161,8.686794,9.230755,10.383355,7.16048,7.567751,8.088393,7.319671,10.442415,7.537411,6.621373,7.807699,7.41945,7.73772,7.243074,"EFS_L5"
"28","PADLDT",7.180961,8.141659,7.821776,8.499555,7.623995,6.81776,9.128119,8.664146,8.757198,7.70634,8.704022,9.489512,7.955303,7.033151,8.38834,7.560279,9.315182,8.071724,8.285204,7.556699,8.213108,7.300088,7.673431,9.051673,7.516565,7.722435,8.053286,8.083163,6.623675,7.471144,7.061159,10.125286,6.219528,10.475736,9.214147,8.496503,9.124593,11.062205,9.605481,9.687164,6.320774,9.770815,9.059213,8.633333,8.93636,9.552226,9.868825,10.980145,8.043004,7.974176,8.14564,10.592065,9.456863,8.810796,7.947117,9.651467,9.197871,9.661122,10.515828,7.652623,6.937033,9.383002,9.593946,9.246731,10.343993,10.832426,10.469982,9.040713,6.68779,10.119675,10.745705,8.545255,9.677069,9.216051,10.693696,8.786739,10.605559,8.656942,10.737413,9.563534,10.209402,8.551326,9.692589,8.595974,10.301913,8.015819,9.542808,5.462519,11.02701,10.379988,10.924493,9.752666,9.862991,8.315036,9.119376,10.405538,7.9362,7.971343,8.262533,6.906856,10.501619,7.703856,7.086361,7.813196,7.174745,7.42768,7.948713,"EFS_L5"
"29","PADLES",7.027184,7.866841,7.482964,8.30749,7.350382,6.401755,8.99517,7.808316,8.746736,7.716442,8.569035,8.287331,7.807269,6.54685,8.21849,8.099413,8.368079,8.034647,8.10111,6.864867,7.583504,7.101895,7.079539,8.93696,7.11392,7.748212,7.595878,7.514381,6.960009,7.053935,6.897056,9.933111,5.973075,10.496437,8.797939,8.424684,9.453152,10.747548,8.95903,9.834621,5.365521,9.442612,8.963328,8.474123,8.67086,9.838413,9.335227,10.678353,8.221328,7.728272,8.48916,10.149657,9.370301,8.47835,7.281304,9.524967,8.903181,9.557095,9.329462,6.698541,6.772671,9.411893,9.20694,9.086821,10.537325,10.56963,9.543783,8.641419,6.212714,9.93276,10.402174,8.795207,9.966462,8.366194,10.32291,8.358285,10.078828,8.555481,9.82639,8.941527,9.604005,8.027502,9.300166,8.422642,9.711198,8.538036,9.414337,5.742894,10.260399,10.100243,10.393411,9.194288,9.525063,8.497206,8.585162,9.537553,7.533411,7.055324,7.651432,7.035606,9.660721,7.179558,6.657059,7.899537,7.402666,7.74672,7.375057,"EFS_L5"
"30","PADLIC",6.166038,7.146836,7.22119,7.496913,6.467314,5.921192,8.110592,7.111643,8.840017,7.471247,8.391616,8.370672,7.314807,5.980312,8.084151,7.482888,8.27181,7.59669,8.191453,6.339578,7.378776,6.189968,7.029015,8.102688,6.651734,7.580666,6.621046,6.659918,6.225295,6.733041,6.713444,9.803701,5.818555,9.541632,8.75063,8.385265,8.572817,10.890364,9.045092,9.496179,4.626052,9.552487,8.131343,7.987619,8.697202,9.791934,9.306889,10.201797,7.310399,8.029177,7.540952,9.410804,9.296716,7.835323,7.194471,9.190021,8.416143,9.71742,9.229453,5.361144,6.729363,9.352016,8.580282,8.64806,9.861988,10.177228,9.375986,8.857804,5.759146,9.765905,10.205673,8.580846,9.736017,8.500231,10.092797,8.195935,10.230978,8.300483,9.848095,8.966402,9.488036,8.066528,9.323725,7.954111,9.522513,8.280525,8.918878,4.941768,9.908603,9.386575,10.086211,9.024628,8.998042,8.039171,8.702411,9.631345,7.176503,7.030896,7.234543,6.679764,9.695615,6.399103,6.302868,7.214653,6.673523,7.27052,6.885986,"EFS_G5"
"31","PADLJN",6.523044,7.355668,7.585431,7.592498,6.915956,6.034653,8.518748,7.696679,8.999021,7.241398,9.313543,8.605739,7.525021,5.970324,7.634954,7.112916,8.651652,7.737286,8.028081,6.645825,7.359516,6.763593,7.213245,9.045903,6.660871,7.284405,7.42228,7.255135,6.521973,7.073528,6.190032,9.843752,5.593393,10.129463,8.830298,8.499404,8.949965,10.726554,9.024324,9.388929,5.190394,9.440636,8.542633,8.575962,8.704694,9.424172,9.256194,10.58192,7.215866,7.564873,7.790258,9.503322,8.934767,8.25476,7.216285,9.310547,8.77222,9.681055,9.572188,6.75113,6.954744,9.275466,8.985678,8.7842,9.922141,10.568667,9.683853,8.950665,4.946147,9.663126,10.223678,8.377988,9.553722,8.280667,10.279277,8.178967,10.114547,8.246146,9.942426,9.28004,9.620248,8.144344,8.908404,8.273057,9.401542,8.373559,9.0365,5.122727,9.805887,9.835243,10.234133,9.242998,9.56219,8.118733,8.767594,9.467572,7.61426,7.129725,7.292268,6.604,10.724987,6.777442,6.287709,6.813857,6.622682,7.26517,6.651717,"EFS_L5"
"32","PADLKJ",7.261762,8.567302,7.786292,8.40391,7.098885,6.427263,9.140476,9.057943,8.624352,7.571243,8.453258,9.421885,7.624055,6.879742,8.580901,7.729271,8.354093,8.173803,8.573187,7.930503,7.947087,7.859243,7.724978,9.078807,7.952635,7.889464,7.900976,8.069718,7.077765,7.628574,7.196149,10.098545,5.821997,10.805579,9.341975,8.630739,9.463434,11.183607,9.640648,9.915929,5.917599,9.957189,9.338444,8.685185,8.763332,9.782467,10.137643,11.173133,8.153592,8.039172,7.749615,10.428766,9.700831,9.061397,7.896852,9.98276,9.203753,10.034443,10.377329,7.021755,6.75261,9.76875,9.820409,9.371146,10.403553,10.996943,10.559367,9.102406,6.457715,10.030981,10.851676,9.384583,10.125828,9.341457,10.831194,8.792081,10.616855,8.654162,10.711165,9.763817,10.361193,8.271354,9.540637,8.872548,10.91414,9.31787,9.839033,5.303348,10.95189,10.467209,10.736553,9.803588,10.071992,8.376722,9.24142,10.634384,7.759042,8.202923,8.284968,6.586419,10.177837,7.503923,6.99057,7.824431,7.902238,7.44188,7.691466,"EFS_L5"
"33","PADLNM",7.191863,8.260222,7.796182,8.444323,6.908211,7.055666,9.151228,8.667083,8.948055,7.610707,8.437008,9.374149,7.032219,6.477112,8.903106,8.228698,8.759643,8.153727,8.515292,7.580769,8.41591,8.171912,7.749149,7.999233,7.629094,8.115057,7.60331,8.002296,7.027441,7.35839,7.345039,10.233166,5.761687,10.592438,9.509293,8.932443,9.530329,11.286101,9.884654,10.103888,5.628146,10.513235,9.541011,8.794695,9.35144,10.237645,10.043163,11.070753,8.759256,8.408113,8.65566,10.358552,9.687284,8.579583,8.285984,9.633673,9.47707,9.480947,10.684837,6.613147,6.704889,9.767374,9.267973,9.526477,10.405324,10.811758,9.782239,9.164514,6.007905,10.330987,11.064529,9.061667,10.212979,9.336427,10.834469,9.219686,10.7323,8.570525,10.306081,9.681989,10.559879,8.621806,10.131625,8.551799,10.539893,9.224083,9.614465,5.797903,11.265974,10.207321,10.946719,9.843484,9.845028,8.14781,9.320718,10.499586,7.629564,7.834077,8.606187,7.336525,9.754025,7.577769,7.643312,7.322209,7.678858,7.71893,7.523162,"EFS_L5"
"34","PADLPR",6.871393,7.48106,7.309695,7.645924,6.869692,6.503446,8.796862,7.96466,8.772352,7.135959,8.157994,8.417754,8.495771,6.345448,7.784709,8.446793,8.293993,7.921336,7.909442,6.813863,7.994299,6.091977,7.580686,8.251468,6.854651,7.72662,7.335882,6.991884,5.935973,6.878453,7.145658,9.491004,5.669087,9.998376,8.854937,8.200688,8.319494,10.935156,8.979578,8.486632,4.147734,9.141539,8.170184,7.689318,8.366905,9.983259,9.051394,10.406345,7.489196,8.240718,8.357399,9.49808,9.418714,8.142116,7.143585,8.467541,8.622938,9.438193,9.13321,6.774358,6.978767,9.126793,8.520115,8.554898,10.269699,10.488772,9.365535,8.780862,5.194958,9.497404,10.186955,8.363228,9.581532,8.304256,10.174304,7.663324,10.028431,8.555242,9.696436,8.879482,9.491732,8.454763,9.004207,7.955722,8.664882,8.515712,9.066296,4.781886,10.628925,9.523891,10.103529,9.492173,9.5172,8.854876,8.447803,9.713283,7.227947,7.501948,7.849734,5.909672,10.52535,6.730418,6.075906,7.249969,7.866632,6.4385,7.395764,"EFS_L5"
"35","PADLPZ",6.474916,7.185332,7.224119,7.336243,6.208227,6.071744,9.138799,7.611656,8.596342,7.174149,8.171282,8.078316,7.455717,6.010789,6.803929,7.357838,8.352982,7.627854,7.72233,6.301726,7.01915,6.367182,7.061481,8.123318,6.735535,7.837411,7.371901,7.28151,6.007794,7.129741,6.485232,9.291894,5.97313,10.124933,8.898345,7.962034,8.328334,10.66642,8.372022,8.566248,3.987499,8.912444,7.729629,7.471721,7.885837,9.175843,8.384133,10.205144,6.656361,7.07926,7.672628,9.701642,8.465831,7.760872,6.855666,8.619263,8.01863,9.183113,8.510907,5.362459,7.145166,8.820398,7.926587,8.891851,9.790632,10.222691,9.149385,8.490709,4.913046,8.896579,9.878499,7.808598,8.559903,7.528519,10.679696,7.395286,10.138294,8.165589,9.364208,8.2571,9.571144,7.444277,8.686994,7.76629,8.346253,7.548727,8.28126,4.795454,10.235659,9.165344,10.416564,8.406588,9.038161,8.02061,8.561456,8.819794,7.589721,6.855684,7.68892,6.765028,9.713778,6.668443,6.123595,6.56468,6.313258,6.34406,6.92771,"EFS_L5"
"36","PADLTD",7.422312,8.488382,7.647683,8.358828,6.583515,6.926417,9.170446,8.98916,8.624526,7.424866,8.78941,9.468891,7.328012,6.447741,8.854855,8.118964,8.641654,8.26174,8.578746,7.432767,7.382901,8.104249,7.353465,8.923438,8.012095,7.867145,8.125034,7.804314,6.605953,7.105411,7.640293,10.479389,6.709572,11.09174,9.554355,8.721024,9.806239,11.200329,9.745973,10.139644,6.698836,10.173767,9.700211,8.53515,8.82148,9.835344,10.315743,11.038063,8.818743,8.4959,8.552222,10.831683,9.46742,8.959003,8.494052,9.684944,9.559979,9.915515,11.013764,7.097915,7.067015,9.952328,10.059515,9.462205,10.600821,11.005856,10.309735,9.082212,6.021395,10.131834,10.900771,9.577846,10.574787,9.362012,10.841513,9.031877,10.544989,8.88945,10.881425,9.828327,10.370749,8.607119,9.920122,9.034891,10.823873,8.115269,9.998442,5.472281,11.238183,10.830138,11.082942,10.018335,10.634796,8.693372,9.427251,10.541085,7.811038,8.080224,8.549241,6.860192,10.302366,7.610061,7.162188,7.581239,8.187344,7.61069,7.416752,"EFS_L5"
"37","PADMGA",6.891341,7.82241,7.500068,7.052255,6.996562,5.859134,8.007702,7.478212,8.696234,7.273458,8.357991,8.161258,7.297338,6.119691,8.037935,7.467081,8.129796,8.14621,7.897956,6.617241,7.608892,6.547735,7.04242,9.28187,7.00781,7.435437,7.116294,7.136514,6.924028,6.967227,6.319322,10.149491,6.096625,10.582764,8.827598,8.331255,9.152944,10.684192,8.895098,9.759114,5.262736,9.469892,8.900892,8.367608,8.059082,9.154807,9.687933,10.469274,7.519029,7.501022,7.892746,10.148147,9.321178,8.712793,7.258683,9.907996,8.617788,9.47501,9.864212,6.11387,7.138868,9.478624,9.439967,8.722209,10.065325,10.20779,9.827761,8.807641,5.927537,9.983965,10.303758,8.912296,9.912941,8.67662,10.344994,7.830957,9.984785,8.357968,10.129899,9.468478,9.577896,7.749989,8.687196,8.336318,10.14084,8.998002,9.297927,5.928681,10.284954,10.069201,10.022069,9.014485,9.546016,8.064859,8.798316,9.418083,7.331517,7.260725,6.996558,6.952174,9.84906,6.937774,6.733384,7.638671,6.875751,7.44117,6.941718,"EFS_L5"
"38","PADMTD",7.333539,8.25741,7.645472,8.093796,7.139594,6.814475,9.025932,7.810245,8.608398,7.815613,8.403295,9.293941,8.010131,6.706964,8.058456,8.371217,8.325039,8.029441,8.109071,7.493002,8.166844,7.112182,7.245512,8.857392,7.326113,8.073161,7.94496,7.380678,7.774898,7.168348,6.567963,10.169308,6.00796,10.325366,8.916452,8.619578,9.425649,10.890802,9.28835,9.978666,4.75308,9.887016,9.524732,8.87885,8.496382,9.42736,9.804654,10.683982,8.099644,8.027351,8.077956,10.137428,9.512798,8.602306,7.672905,9.404774,9.415145,10.25689,10.120836,7.823043,6.62751,10.20533,9.485342,9.19174,10.32877,11.036168,10.028422,8.724266,6.805347,10.187423,10.913656,9.319036,10.142948,8.990526,10.348503,8.8394,10.534888,8.59808,10.675898,9.496826,10.016644,8.723431,9.037107,8.7004,10.235895,9.54744,10.070791,6.493574,10.793777,10.467024,10.346816,9.737115,10.003848,9.292689,8.824033,10.310333,7.484428,7.408699,8.212332,7.529569,9.851467,7.33916,7.820416,7.593382,7.973745,7.96787,7.68022,"EFS_L5"
"39","PADMVB",6.093355,6.829178,7.278909,7.115587,6.308766,6.009417,7.844592,7.415917,8.693168,7.290935,8.617176,8.050241,7.298705,6.057892,6.986464,6.935309,8.650017,7.458028,7.723929,5.554441,6.861397,5.85445,6.816316,9.065985,6.379585,7.333945,7.280987,6.937364,5.691037,6.908003,5.978945,9.432371,5.92122,9.847175,8.409427,7.985107,8.180137,10.552335,8.954366,8.707697,4.1895,9.162151,7.741866,7.872094,8.214728,9.337725,9.025931,10.117046,7.041274,6.836126,7.572704,9.569508,8.963689,7.841081,6.484254,8.922251,8.162138,9.449708,8.80086,6.507247,7.187378,8.877176,7.656628,8.234934,9.720505,9.989097,9.040983,8.666623,4.932962,9.014274,9.69618,7.772771,9.50605,7.568239,10.21956,7.704641,9.834571,8.274925,9.2064,8.885765,9.41415,7.717969,8.447356,8.090537,9.092443,7.702368,8.727498,5.233813,9.067465,8.862875,9.567141,8.698768,8.603805,7.775807,8.20509,8.242159,7.227943,7.13594,6.936975,6.461167,10.132532,6.629296,5.722012,6.203039,6.081436,7.20236,6.328207,"EFS_L5"
"40","PADMXD",7.516368,8.781231,7.761408,8.772112,7.409584,6.951545,9.184655,9.028321,8.892131,7.763668,8.845935,9.467775,8.369133,6.967465,9.14785,8.138172,8.954813,8.486117,8.984362,7.983023,8.149767,8.274315,7.877132,9.327805,8.120923,8.000995,7.883372,8.044628,7.256777,7.593595,7.405152,10.570738,5.59797,11.027357,9.710534,8.94197,9.629297,11.26303,9.948117,10.361539,5.40364,10.266449,9.752069,9.190166,9.355574,9.962914,10.818437,11.173188,8.761574,8.552395,8.539934,10.855867,9.743968,8.794499,8.294698,10.142017,9.568521,10.166653,10.881286,7.047716,6.526906,10.05676,9.701131,9.666717,10.595796,11.055007,10.468652,9.293905,6.980406,10.462168,11.261634,9.582301,10.647724,9.603937,10.511436,9.085897,10.64184,8.969343,10.829133,9.877681,10.50523,8.822004,10.040313,9.019786,11.038937,9.410991,10.087831,5.545037,11.268472,10.854507,10.851902,10.235617,10.299851,9.328146,9.351769,10.831607,7.708748,8.186209,8.669721,6.962754,10.335445,7.934943,7.613245,8.044776,8.460765,8.21427,7.779061,"EFS_L5"
"41","PADMYD",7.485073,8.915044,7.184131,7.821267,7.598803,6.694673,8.518059,8.461881,8.784978,7.493611,8.578093,8.228718,8.817301,6.59322,7.939469,8.06309,9.045265,8.312861,8.225417,7.139051,8.674585,7.067881,7.326946,9.221552,7.18564,8.120315,8.087884,7.329397,6.137178,7.491904,6.724144,9.431101,5.811125,10.349306,8.647717,8.073604,8.561308,10.378218,8.842178,9.076551,5.02675,9.511083,8.490151,8.706085,8.753099,9.222771,9.350925,10.455122,7.758247,8.04628,8.117188,9.912139,9.182073,8.215807,7.472735,9.66661,8.774073,9.693312,9.486557,7.045011,7.019353,9.317043,8.750007,8.618128,9.979333,10.153925,9.808766,9.022971,5.843491,9.094772,10.050887,8.266668,10.061854,8.705619,10.10421,8.185706,10.45548,8.695238,9.958697,8.604439,9.463849,8.246159,9.018662,8.44311,9.971382,8.579565,8.822201,4.997333,10.148748,9.29725,10.287501,8.671234,9.094613,8.461904,8.32052,9.455161,7.50443,7.493015,8.088273,6.907854,10.922038,7.293278,6.525693,7.750525,7.94046,7.19858,7.828505,"EFS_L5"
"42","PADNFT",7.205418,8.561456,7.395781,7.738907,7.372159,6.868351,8.947725,8.456333,9.275116,7.615538,8.859685,8.44814,8.930003,6.500719,7.526894,8.201753,8.590777,8.122771,8.367104,7.022682,8.59332,7.179939,7.592564,9.391825,7.394395,8.199531,8.001788,7.29706,6.494937,7.243218,7.668757,10.073392,5.866375,10.649094,9.553833,8.516882,9.298377,11.108972,9.297263,9.858465,4.629682,10.049122,8.998894,8.742522,9.06493,10.130599,9.508148,10.988284,8.484762,7.708452,8.360294,10.032022,9.547691,8.69911,8.057856,9.682017,9.244738,10.11851,9.872782,6.815263,6.669441,9.484711,9.06208,9.149889,10.319624,10.575638,10.043861,9.163014,5.64868,9.850134,10.768364,8.445621,10.248695,9.091726,10.61557,8.77947,10.476908,8.776033,10.171915,9.287609,10.047347,8.511949,9.660181,8.582325,10.075385,8.291293,9.67494,5.636673,10.368499,9.820561,10.678706,9.843003,10.356184,8.461132,8.746546,9.367544,7.391618,6.986798,8.300588,6.880966,10.790515,7.768545,6.487325,7.705644,7.968752,6.91495,7.532015,"EFS_L5"
"43","PADNNX",6.433603,7.553682,7.379308,7.589809,6.972076,6.336781,8.398194,7.636063,8.544712,7.584923,8.542153,8.354372,8.287821,6.402727,7.877904,8.038481,8.465419,7.85483,7.976691,6.888692,7.276434,6.697764,7.080148,8.276068,7.2632,7.92516,7.622743,7.206849,6.31501,7.076635,6.483562,9.527769,5.464328,9.92641,8.557303,8.314914,8.381911,10.780709,8.955562,8.990355,4.523607,9.186676,8.126241,7.863285,8.283404,9.656952,9.111269,10.251795,7.040252,7.608396,7.493494,9.734313,9.222238,7.887447,6.913632,9.082579,8.651478,8.929423,8.965008,6.495344,6.629638,9.207835,8.491097,8.6207,9.80685,10.351369,9.334533,8.761162,5.577085,9.492792,10.233624,8.293661,9.19172,8.320383,10.330047,7.912268,10.091897,8.024957,9.575855,8.495627,9.695194,7.488072,9.491792,8.027796,9.404688,8.600591,9.05125,5.406447,9.762851,9.191507,9.99367,9.144058,8.992809,8.160826,8.715077,9.461796,7.430996,7.327936,7.554892,6.888376,9.884464,6.812813,6.640038,7.247847,6.942714,7.59418,7.08558,"EFS_L5"
"44","PADNXC",7.116245,8.276107,7.509342,8.421371,6.934309,6.624398,9.045161,8.586124,8.668984,7.883401,8.689405,9.177891,7.998535,6.895474,7.444237,7.701975,9.253478,8.22767,8.326134,7.824598,8.017996,7.074248,7.463327,8.94028,7.708484,8.007894,7.671254,7.83105,6.771405,7.209783,6.738177,9.612684,6.22496,10.606755,9.128214,8.336991,9.206973,10.966517,9.37646,9.548176,5.727544,9.660233,9.036626,8.615555,8.966356,9.354083,9.228107,10.61712,7.989559,7.606327,8.065539,10.209884,9.392616,8.677796,7.649067,9.80649,8.598489,9.887855,9.89052,7.161665,7.061048,9.486835,9.186011,9.127843,10.358934,10.695359,10.179238,9.040632,5.893094,9.728191,10.678629,8.704802,9.963916,9.365952,10.698123,8.481458,10.323023,8.596642,10.217148,9.226869,10.259995,8.092233,10.047331,8.570267,10.394303,8.490901,9.119396,5.402426,10.894811,9.938255,10.880331,9.633204,9.836814,8.281095,8.900137,9.307934,7.784922,7.515951,8.115193,7.017833,10.208274,7.496129,6.968035,7.750334,7.428931,7.39098,7.492625,"EFS_L5"
"45","PADPCI",6.902413,7.840558,7.145354,7.822184,7.409937,5.974361,8.174592,7.41252,9.159902,7.36403,8.179841,7.773947,7.561267,6.739864,8.154887,8.21766,8.022234,8.110686,8.119966,6.993653,7.702737,7.526797,7.007544,9.016552,7.353083,7.567104,7.619785,7.350746,6.610743,7.092396,7.311415,9.439036,5.76693,9.658374,8.951214,8.103307,8.368106,10.456764,8.760423,9.110248,4.42598,8.996138,7.911818,7.489069,8.193907,9.779569,9.313539,10.118346,7.614971,7.917346,7.733036,9.624655,8.915973,7.880666,6.924375,8.927142,8.591197,9.375005,9.244293,5.192386,6.559772,9.21346,8.444087,8.343731,9.805411,9.646006,8.941348,7.889699,6.896591,9.232434,9.976505,8.277763,9.171979,8.488198,10.171381,7.604562,9.629066,8.08996,9.603642,8.600974,9.292552,7.079965,9.201475,8.180285,8.76592,8.217608,8.683867,5.25851,9.474313,9.308305,9.770561,8.857266,8.811676,8.141898,8.447255,9.479973,7.588029,7.231339,7.673657,7.433358,10.101831,7.208108,6.478521,7.829855,7.447396,7.96086,6.989567,"EFS_L5"
"46","PADPEY",6.846801,8.152888,7.561247,8.483997,6.745142,6.909558,9.019747,7.754214,8.657204,7.313334,8.100672,8.926486,7.622602,6.558098,8.798538,7.680446,8.571989,7.983424,7.918952,7.534419,7.372718,7.461147,7.211541,8.122898,7.713685,7.432741,8.043617,7.53684,6.600543,7.041579,7.21806,10.266762,6.13112,10.888009,9.40472,8.243291,9.37768,10.617577,9.516063,9.943243,5.855547,9.800435,9.581146,8.521364,8.478542,8.881499,10.188291,10.854519,8.786512,8.323385,8.335895,10.602051,9.314833,9.106439,8.435914,9.392817,9.465037,10.405037,10.902467,7.411177,6.877166,9.825292,9.985397,9.32937,10.43621,10.818233,10.296382,9.0515,5.983131,9.726121,10.352809,9.31193,10.274803,9.741411,10.699164,8.698027,10.419298,8.608638,10.970665,9.360212,10.249338,8.374143,9.515621,8.829884,10.82753,8.762182,9.759179,5.331607,10.889419,10.88306,10.930639,9.322379,10.197612,8.578071,9.017861,10.529801,7.90323,8.005718,7.911377,6.276285,9.856456,7.348083,6.426385,7.324664,7.674688,7.38093,7.265791,"EFS_G5"
"47","PADPHP",7.856896,8.343421,7.558618,8.22588,7.751469,6.397571,8.564642,8.52518,9.114541,7.239082,8.32924,8.223285,8.767008,6.851646,8.566459,8.453447,8.542396,8.542484,7.876774,7.244738,8.761822,6.502756,7.761824,9.36422,7.412677,8.109667,7.898525,7.324117,6.610152,7.271252,7.112119,10.129663,5.82461,10.207696,8.994616,8.200032,8.996372,10.896949,8.942515,9.515819,5.352289,10.118784,8.807341,8.747495,8.705819,9.904171,10.065606,10.529255,8.046199,7.774706,8.337491,10.406722,9.227779,8.645133,7.386866,9.390639,8.835352,9.89856,10.187422,6.799539,6.866357,9.438424,9.062339,8.865343,10.131195,10.435652,10.04348,9.057966,6.644086,9.846391,10.73314,8.16896,10.093279,9.164564,10.530249,8.212812,10.403058,8.87072,10.275325,9.58321,9.774398,8.623085,9.035728,8.18421,10.376257,9.022566,9.29941,5.186353,10.486369,10.041078,10.297378,9.972088,9.458846,8.558708,8.725947,9.899489,7.352472,7.531302,8.544475,7.067411,10.673884,7.650634,7.255713,7.856302,8.314636,7.30463,7.993182,"EFS_L5"
"48","PADPMU",7.093035,7.926022,7.471413,8.090994,7.457629,6.531897,8.722228,8.878244,8.928912,6.969359,8.365794,8.888816,8.594919,6.662319,7.397357,8.24798,9.482326,8.302022,8.16552,7.704158,8.747215,7.239072,7.77074,8.957327,7.386957,8.178301,7.780385,7.79422,6.328354,7.3861,6.699213,9.924858,5.936665,10.684014,9.397966,8.426219,9.229901,11.056602,9.416291,9.594396,4.525992,9.806805,9.518057,8.529073,8.955523,9.995599,9.562297,11.095393,7.921994,7.928247,7.902014,10.484884,9.320332,8.752767,7.958085,9.236607,9.066476,9.94273,10.417781,7.232636,7.089189,9.624482,9.308248,9.086896,10.090909,10.827907,10.122905,9.341281,5.710953,9.721581,10.533482,9.08139,9.84446,9.660212,10.656903,8.566446,10.626582,8.69599,10.629505,9.641503,9.942269,8.927367,9.267936,8.161119,10.388908,8.50236,10.020732,5.213331,10.456612,10.153179,10.732112,9.941698,9.775022,8.169791,9.078379,9.903926,7.572125,7.503936,7.95632,6.969847,10.748514,7.844914,6.332339,7.394509,7.613793,7.31862,7.866373,"EFS_L5"
"49","PADPRJ",6.659689,7.880708,7.335673,7.739592,6.856238,6.044314,8.506623,7.60661,8.664877,7.741712,8.476004,8.733765,7.984951,6.427604,7.685601,8.138891,8.653133,8.066381,8.232495,7.187836,7.684565,7.175362,7.180676,8.632473,6.836066,8.251165,7.625977,7.420659,6.905805,7.350314,6.729798,9.639662,5.838055,10.290935,9.183869,8.323619,9.249589,10.865167,9.145436,9.540488,3.98532,9.402406,8.643745,8.374379,8.787402,9.890246,9.127761,10.728095,7.936171,7.645227,7.884909,9.920054,9.416901,8.052479,7.176824,9.49709,8.582848,9.41338,9.14265,6.35975,6.693615,9.147169,8.541832,8.881211,10.237128,11.026196,9.655783,8.982706,5.595717,9.750923,10.50518,8.530254,9.519437,8.701809,10.333871,8.316694,10.190713,8.4385,9.482429,9.276799,10.121324,7.670068,9.544135,8.677825,9.783123,8.423749,9.256052,5.486028,10.051256,9.809594,10.311891,9.160698,9.586326,8.55435,8.61183,9.42337,7.383438,7.074418,7.945472,7.014069,10.241039,7.325538,6.144783,7.527179,7.715494,7.57712,7.031346,"EFS_L5"
"50","PADRYN",6.443252,7.319281,7.61322,7.528726,6.280596,6.213378,8.515876,7.843209,8.612528,6.700858,8.066523,8.976628,7.106857,6.69857,7.890545,7.189355,7.529246,7.747851,7.673929,6.280987,6.855528,6.135068,6.902644,8.075485,7.07045,7.09068,7.091588,7.320198,6.019008,6.313178,6.889922,9.905704,5.566783,10.178085,9.048347,8.302049,8.734934,10.891112,9.175059,9.214287,5.101154,9.335708,8.484616,7.690944,8.161986,9.242284,9.444432,10.601324,7.994151,7.664561,7.442874,10.101967,9.150057,7.601061,7.08667,8.94783,8.893916,9.868435,10.288724,6.487116,7.239865,9.472947,9.213269,8.929954,10.307519,10.351301,9.848932,8.508822,5.647836,9.648735,10.071654,8.827526,9.438754,8.417285,9.943064,8.038227,10.200559,8.617328,10.532521,9.068516,9.709012,8.2772,8.877659,8.565489,10.075053,8.483834,9.531796,4.722164,10.407599,10.292556,10.025298,9.317873,9.654878,8.316652,8.931279,9.936187,6.985195,7.484514,7.646197,6.083458,9.717427,6.477503,6.84514,6.794072,6.503582,6.54938,6.555957,"EFS_L5"
"51","PADSEC",6.894472,7.535548,7.056374,7.838958,7.257054,7.032292,8.534227,7.638867,8.701669,7.720941,9.345325,8.434558,8.100692,6.051052,8.184053,7.757367,9.225959,7.880162,8.466792,7.187228,7.415866,6.506909,6.991257,9.004093,7.31835,8.366614,6.951635,7.525278,6.546877,6.870611,6.722887,10.007407,5.83118,9.997834,8.806404,8.557191,9.023399,10.923496,9.106474,9.727427,4.811836,9.677876,8.949696,8.645105,8.767853,9.574217,9.824949,10.587717,7.661927,7.791073,8.385487,9.796188,9.600759,8.439676,7.357522,9.721973,8.823455,9.866765,9.450497,7.014774,6.811285,9.803312,8.943431,8.715397,10.212942,10.834933,9.679739,9.07069,5.853171,10.073529,10.589966,9.014081,10.215201,8.648046,10.56297,8.409387,10.33347,8.532125,9.719391,9.543119,9.584154,8.600965,9.368566,8.242039,9.723247,9.006261,9.439621,5.71107,9.857792,9.750381,10.549315,9.692378,9.772631,8.380615,8.705569,9.919076,7.370401,7.095461,7.655426,7.234061,10.779246,7.067542,7.047915,6.960401,7.353361,7.12424,6.887388,"EFS_L5"
"52","PADSMF",6.377347,7.556785,7.591544,7.632187,6.720665,6.188864,8.7643,8.264762,8.930546,7.1143,8.70216,8.466592,7.822256,6.230159,7.212272,7.337783,9.051834,7.921293,7.894293,6.400752,7.46272,6.429145,7.14949,8.609898,6.916644,7.811906,7.539466,7.164411,5.846498,7.203781,6.714158,9.319745,5.64052,9.937189,8.65824,8.304236,7.763411,10.927718,8.769183,8.507075,4.123058,8.944786,7.776471,7.985052,8.122012,9.715114,9.160979,10.304101,7.389479,7.360532,7.309161,9.577224,8.826974,8.006876,6.965546,8.754253,8.584015,9.140125,8.964691,6.107605,6.690458,8.756729,7.999875,8.496325,9.558112,10.383813,9.521346,8.774793,5.271401,9.326693,10.114693,7.986502,8.91318,7.902223,10.26598,7.836149,10.47344,8.070015,9.505717,9.132451,9.487405,8.228295,8.650453,8.217827,9.301907,8.070783,8.327996,4.605175,9.889249,8.921584,10.334205,8.488027,8.925886,7.833629,8.550147,8.717961,7.372748,7.310485,7.262865,6.60248,10.258808,6.729016,6.258941,7.12762,6.88242,7.01329,7.049695,"EFS_G5"
"53","PADSXE",6.561131,7.760318,7.119823,7.957554,7.061852,6.443405,8.920322,7.690513,8.712781,7.60694,8.604394,8.324271,7.775379,6.389161,8.280598,7.80322,8.828294,7.517173,8.624144,7.012608,7.810829,6.928258,7.179725,8.612288,7.250692,7.64288,7.545119,7.444539,6.405733,6.985736,6.882572,9.369311,5.595412,10.109369,8.774874,8.344888,9.200505,10.778969,8.875871,9.465688,4.433647,9.439083,8.493295,8.486545,8.907344,9.928524,9.288211,10.343094,7.338585,7.983529,7.952146,9.728055,9.374019,7.831043,7.367283,9.39068,8.977383,9.69684,9.21182,6.367342,6.427811,9.004343,8.895471,8.790188,10.019661,10.243887,9.913381,8.905933,6.344132,9.431289,10.388686,8.511067,10.00467,8.464588,10.001351,8.551496,10.167002,8.524472,9.575306,9.028582,9.635588,7.717695,9.361291,8.418399,9.568973,7.879414,8.890345,4.999381,9.710335,9.585032,10.643844,9.171882,9.300448,8.022417,8.461968,9.675393,7.301725,7.291025,7.618688,7.422691,10.314815,7.116991,5.973215,7.732694,7.43817,7.31435,6.829416,"EFS_G5"
"54","PADSXU",7.471136,8.533654,7.422932,7.92083,7.451205,6.658376,8.669251,8.495159,8.667314,7.219716,8.557805,8.599101,8.266469,6.634031,8.219126,8.117707,9.381249,8.37265,8.363503,7.468983,8.568185,7.607048,7.901813,8.967083,7.33875,8.091501,8.00368,7.508156,6.48179,7.555425,7.243558,9.976911,6.358545,10.819398,9.240799,8.600429,9.115921,10.982112,9.397494,9.587567,6.418436,9.457687,9.181338,8.395932,8.986606,9.61571,9.795067,10.837234,7.948666,7.974411,8.359626,10.257573,9.352147,8.676774,7.732657,9.78795,8.862918,9.311772,10.174453,6.141325,6.821538,9.635975,9.189685,9.057194,10.189394,10.796083,10.237176,9.180497,6.100484,9.793688,10.907809,8.844861,10.10826,8.952597,10.593407,8.726763,10.578176,8.643262,10.254599,9.194948,10.137449,8.00843,9.895605,8.575662,10.729438,8.060838,9.26617,5.292872,11.208574,9.856131,11.051989,9.626162,9.838214,8.892362,9.134184,9.963943,7.380599,7.563905,8.398344,7.452996,10.585305,7.705373,6.862434,7.74201,7.848397,7.59393,7.8695,"EFS_L5"
"55","PADTCU",6.007698,7.864366,7.040501,7.321457,6.458397,5.859284,7.713252,7.852552,8.323313,6.321852,8.131274,8.290869,7.534279,6.608245,6.288519,7.555417,8.340127,7.507051,7.456247,5.661146,6.414141,5.758984,6.89208,8.666034,6.281422,7.187774,7.020266,6.760217,6.079277,6.983823,6.269195,9.383525,6.09589,9.60288,8.168598,7.692658,8.246254,10.600413,8.37576,8.884843,4.602246,8.875806,8.287734,7.648946,8.151901,9.113791,8.332053,9.984286,7.468368,6.393663,7.461425,9.424522,8.114056,7.854451,6.813463,7.878197,8.470393,9.546872,9.214832,5.946534,6.842083,8.564195,7.975909,8.603746,9.785751,9.903429,9.194521,8.564537,5.315636,8.798357,9.851397,7.827446,8.30705,7.850837,9.967733,7.571022,9.755287,7.780789,10.032264,8.863311,9.443621,7.467116,8.332018,7.585421,8.879173,8.596363,8.48777,5.071629,9.73941,9.02738,9.669879,8.965909,8.799161,7.634204,8.43064,8.288948,7.003925,6.558821,7.197561,6.738902,9.728597,6.77035,6.225268,6.394334,6.526551,4.91229,6.568812,"EFS_L5"
"56","PADTJJ",7.224102,8.44823,7.61096,8.313058,7.22388,6.577549,9.083227,8.781854,8.718738,7.950444,8.726133,9.377863,7.788689,6.718673,8.916823,7.97927,8.833617,8.119103,8.346672,7.616916,7.89576,7.008608,7.628472,9.09831,7.412737,7.711544,7.868052,7.800623,6.980733,7.060761,7.076018,10.363488,6.268767,10.771277,9.412037,8.456609,9.456966,11.225869,9.789476,10.138928,6.677551,10.109708,9.660566,8.80192,9.033099,9.820986,10.329415,11.056061,8.613161,8.353784,8.426891,10.76164,9.705967,8.994461,8.15545,9.491349,9.548162,9.976418,10.631946,7.390076,6.628745,9.787221,9.802327,9.501237,10.60474,10.988994,10.295117,9.254989,5.768922,10.239362,10.927085,9.15595,10.399856,9.636594,10.864917,8.922059,10.515557,8.872426,10.730549,9.782202,10.328367,8.813167,10.036982,8.750139,10.805565,8.239599,9.871609,5.719301,11.060865,10.656906,11.011187,10.275681,10.23629,9.08628,9.278353,10.544653,7.649357,7.990305,8.48945,7.049197,10.224279,7.513637,7.16325,7.625709,7.904634,8.01563,7.328012,"EFS_G5"
"57","PADTRV",6.250582,6.772597,6.876455,7.743276,6.443959,6.59882,8.297061,6.958318,8.360975,6.899403,8.144359,8.058093,7.39153,5.939678,7.164868,7.408582,7.845461,7.195267,7.944517,6.203231,7.358105,6.240095,6.720124,7.711773,6.726865,7.412381,7.805163,6.904213,5.428031,6.666668,6.279816,9.171173,5.838403,9.965876,8.202753,8.056205,8.172655,10.247955,8.526423,8.621884,4.584791,9.114945,8.069691,7.970034,8.101308,9.134503,8.614859,10.621406,7.472236,7.528175,7.448594,9.411546,8.557499,7.714976,7.021543,8.976783,9.080527,9.345785,9.543715,6.672757,6.532028,9.462413,8.992586,8.487028,9.534755,10.349651,9.639376,8.939528,5.240351,9.242646,9.691884,8.296315,9.287772,8.44353,9.636037,8.046661,9.852262,7.956895,10.257282,9.062263,9.225954,7.655665,8.667747,8.08147,9.557163,8.301195,8.534954,5.335968,10.521259,9.388612,10.472857,8.595642,9.252031,8.031824,8.57815,9.597077,7.16812,6.862002,6.925648,6.54488,9.11785,6.587124,5.957239,6.369581,6.949013,6.33212,6.723389,"EFS_G5"
"58","PADUKP",7.239562,8.280878,6.859278,7.500941,7.527408,5.996433,7.305762,7.958864,8.714412,6.584281,7.901555,7.948222,8.063162,6.780882,7.263446,8.052831,7.724695,7.832401,8.170204,5.942041,7.654178,6.925405,7.045961,8.89425,6.726756,7.553277,7.629215,7.377887,6.353124,7.447714,6.725619,9.513652,6.243918,9.406782,8.314479,7.899918,8.662234,10.294017,8.581718,9.010939,5.208172,8.401171,7.949433,7.790414,8.178805,8.902826,8.554875,10.122303,7.606615,7.408255,6.877876,8.818017,8.327142,7.928019,6.159659,8.953826,7.765452,8.42112,9.013213,5.222126,7.148954,8.976804,7.821055,8.436983,9.009906,9.447376,9.426378,8.853444,5.913805,9.057493,9.524115,8.453426,8.135636,7.734497,10.06393,7.345259,9.651488,8.091308,10.254813,8.942427,9.383818,7.216376,8.358078,7.841743,9.742865,8.882481,8.422218,4.732713,10.425297,9.105137,9.607005,8.842141,8.968406,7.304525,8.069462,8.87081,6.890537,7.489676,7.286767,7.099527,10.269766,7.680329,6.376525,7.311089,7.823158,7.42286,7.625777,"EFS_L5"
"59","PADUWR",6.834896,7.987623,7.653796,7.954225,7.333598,7.09334,8.772259,8.719204,8.850953,8.016158,8.636294,8.496475,8.224848,6.107743,8.246811,7.888774,8.742182,8.362712,8.54907,7.452995,7.905972,7.413176,7.774004,9.47869,7.532757,8.393201,7.571155,7.855321,7.126339,7.372492,7.293512,9.800153,6.131905,10.111171,9.348036,8.530914,8.794805,11.021909,9.320561,9.454174,4.985391,9.503025,8.758755,8.322643,8.875457,9.806377,9.838624,10.812301,8.007868,7.857142,8.397787,10.235402,9.474861,7.903421,7.554614,9.519609,8.645336,9.569922,9.716643,6.990708,6.414872,9.754976,8.722803,9.058782,10.696364,10.748864,9.64057,9.013101,6.195985,10.035502,10.707217,8.730679,9.537488,8.835933,10.069963,8.360324,10.230403,8.207738,9.871597,9.022315,9.83071,7.26063,9.597392,8.342936,9.951235,8.770376,8.917827,5.496019,10.891365,10.196254,10.623512,9.428704,9.368331,7.918108,9.05213,9.946883,7.437409,7.640525,8.29189,7.541196,10.411243,7.827328,6.974975,7.954066,7.538004,7.70633,7.443795,"EFS_G5"
"60","PADUYJ",7.352445,8.384879,8.245193,8.309385,6.675921,6.869486,9.223478,8.702602,8.819774,7.605984,8.553808,9.575349,8.319807,6.585632,8.6858,8.732886,8.230889,8.29567,8.836979,7.368952,7.812507,8.086884,7.696344,8.560087,7.912878,8.08952,7.672242,7.943041,7.002338,7.77756,7.604921,10.037691,6.08499,10.844569,9.627772,8.759142,9.384022,11.365949,9.963231,9.868359,6.359617,10.080632,9.075182,8.68896,8.953997,10.147004,10.318475,10.988669,8.696336,8.529027,8.669207,10.372727,9.736762,9.131503,7.902675,9.433474,9.366318,10.039637,10.51894,6.50031,6.691721,9.742035,9.45694,9.631422,10.359373,11.023181,9.704659,9.209476,6.517056,10.276521,11.006021,9.298504,10.266516,8.943955,10.832996,8.814583,10.595823,8.982952,10.468053,9.898683,10.332227,8.988811,9.849723,8.751001,10.802925,7.991653,10.10901,5.324295,11.253384,10.369796,10.765623,10.244673,10.183966,8.558764,9.260531,10.525155,8.175381,7.905521,8.501729,6.918537,9.99379,7.273188,7.282984,7.725156,8.471798,7.76023,7.449502,"EFS_L5"
"61","PADVSN",6.032472,6.431475,7.095014,6.251394,6.22292,5.23271,7.641983,7.146451,8.477477,7.400476,7.501905,7.84031,6.420594,6.223036,6.421927,6.27697,8.716802,7.142409,7.178076,5.440772,5.046851,5.936115,7.028789,8.545807,6.404887,7.008086,6.812674,6.43668,6.137618,6.520016,6.426689,8.174359,5.175955,8.817533,8.11254,7.913575,7.262226,9.980334,8.650328,7.529734,4.545982,8.588964,7.483031,6.941832,7.896872,8.939314,7.330095,9.47616,5.970248,6.90879,6.631569,9.049714,6.592922,7.217202,5.99666,8.342749,6.495481,8.308852,7.517983,5.659609,7.102115,8.968235,6.701644,7.525455,9.12094,9.202729,8.411058,7.273114,5.196274,8.042608,10.248287,6.991733,7.966166,7.130828,10.279547,6.897063,9.328582,7.235217,9.175982,7.260254,9.135704,6.363771,8.552831,7.354449,7.221733,8.440755,7.609335,4.961863,8.304354,7.930447,9.536841,8.46861,7.907069,7.281993,7.873641,7.207111,7.14541,7.048928,6.544393,4.477873,9.972991,5.868353,5.374393,6.147891,5.673832,7.14105,5.816474,"EFS_G5"
"62","PADVWW",7.301177,7.905847,7.287348,7.550831,7.059473,7.343907,8.808146,7.997911,8.901221,7.577923,8.84074,8.217549,8.538579,6.564896,8.321678,8.780891,8.381085,8.145366,8.629868,7.214419,8.441612,6.760665,7.771955,8.706603,7.214263,8.343663,7.448404,7.188656,6.510969,7.068867,7.103746,9.670084,5.554685,10.167241,9.003875,8.288729,8.950802,10.754402,8.799596,9.45939,5.541441,8.817357,8.725207,8.432399,8.862089,9.730575,9.525847,10.438646,8.251495,8.300193,8.455104,9.507233,9.418804,8.237321,7.566777,9.521745,9.012945,9.788745,9.221888,6.161437,6.419863,9.447675,8.917898,8.788301,9.964377,10.494955,9.454065,8.884315,5.703672,9.436201,10.447712,8.418798,9.990949,8.701142,10.31864,8.302665,10.066757,8.569344,9.97432,9.080369,9.559377,8.437687,9.554224,8.047956,9.49821,8.738553,9.239617,5.077579,10.1901,9.616416,10.353231,9.507426,9.501081,8.195552,8.391386,9.693762,7.38436,7.231174,8.00419,7.227828,10.940909,7.659921,6.715877,7.889735,7.908419,7.17143,7.659587,"EFS_G5"
"63","PADWEN",6.489741,7.869537,7.371155,8.445594,7.076386,6.218757,9.351054,8.62627,8.277222,8.165758,8.443232,9.380149,7.10137,6.173554,8.905353,7.715143,7.820457,7.704257,8.636017,6.579787,6.507974,5.881955,7.1706,8.421005,8.224344,7.904814,7.792419,7.320255,6.21562,7.176785,6.780933,10.1899,5.389175,10.290555,8.114614,8.56013,8.957786,11.022318,9.508624,9.945073,5.640971,9.564114,8.775494,7.920207,8.527221,9.611181,10.075427,10.618974,7.977064,8.143572,7.700389,10.198586,9.381132,8.408824,7.675018,9.069134,8.529645,9.292948,10.058992,6.859279,6.640031,9.378128,9.249526,9.243771,9.991245,10.542793,9.931513,8.807033,5.214636,9.922845,10.808045,8.192707,9.919569,8.535745,10.669494,8.336146,10.1011,8.753143,10.113709,9.125797,9.67351,7.914915,8.50529,8.361865,10.283913,8.988064,9.841788,5.085726,10.929014,10.084879,10.468475,9.52339,9.635939,8.240185,9.013277,10.170957,7.442853,7.665999,8.121571,7.012389,9.991989,7.720035,6.713274,7.191738,7.156436,7.39879,6.795772,"EFS_L5"
"64","PADWIM",6.837776,7.868552,7.150764,7.659398,6.999579,6.514563,8.031894,7.927532,8.513985,7.753812,8.573764,8.27681,7.901381,5.855006,7.638534,7.935604,8.622363,7.93657,7.761938,6.81097,7.41253,6.83681,6.980133,9.695958,6.768726,8.087809,7.295466,7.352625,6.528175,6.996186,6.594557,10.19628,5.50947,10.23025,9.168666,8.436414,8.984022,10.897342,9.167748,9.817136,5.06546,10.531667,8.656821,8.144446,8.330823,9.643859,9.455936,10.618665,7.489341,7.272702,7.827953,10.248788,9.070729,8.541823,7.30295,10.25291,8.279136,9.548087,10.329836,5.721867,7.004623,9.992002,9.102744,8.860318,10.261437,10.40404,9.737212,8.748142,6.003985,9.966424,10.608424,8.93855,9.874175,8.552679,10.513314,7.955322,10.13279,8.35474,10.244235,9.234421,9.609055,8.058826,9.322127,8.42233,9.856182,9.614108,9.753555,5.686197,9.7972,9.973749,10.264671,9.460222,9.018893,8.148898,8.691532,9.385271,7.184276,7.139891,7.56378,7.304573,9.994529,7.154695,6.952136,7.729569,6.709431,7.5462,7.069517,"EFS_L5"
"65","PADWSM",7.107498,8.349721,7.931326,8.106486,7.375206,6.284427,8.782294,8.362821,8.789004,7.784087,8.720008,8.822567,8.5091,6.242832,8.19611,7.82696,8.653058,8.295403,8.580173,7.581039,7.851108,7.490216,7.667069,9.433463,7.148286,7.927351,8.048725,7.175368,7.328415,7.675398,6.699364,10.238841,5.973503,10.527866,8.664541,8.57465,9.442726,11.159089,9.445184,9.900111,4.661017,10.096228,8.764669,8.944957,8.859316,9.680186,9.864302,10.418717,7.965251,7.649192,8.028241,10.555181,9.120626,8.537523,7.482412,9.555154,8.886591,9.894565,9.891522,6.658828,6.634511,9.424317,8.997825,9.312353,9.762344,10.866443,9.770845,9.095617,6.686558,10.092352,11.155199,8.509734,9.971993,8.982894,10.466941,8.686896,10.364696,8.420551,10.147747,9.305683,9.995396,8.090953,9.512269,8.584344,9.720767,9.219635,9.644374,6.068119,10.089138,9.990296,10.617458,9.379239,9.800636,8.855192,8.821487,9.578172,7.664577,7.285358,8.196177,7.140315,10.038539,7.999032,7.181433,7.802583,7.54371,8.72784,7.448508,"EFS_G5"
"66","PADWVR",7.551421,7.543722,6.909862,7.770778,7.136288,5.763204,8.434228,7.943458,8.384313,8.227059,8.529429,8.144925,7.572113,6.484089,8.453921,7.666504,8.504131,7.775859,7.595145,6.472212,7.3424,6.338995,6.765053,9.067443,6.996966,7.407495,7.147191,6.730726,6.948566,6.585988,6.425555,9.509075,6.525857,10.184431,7.585104,8.128803,9.166991,10.996432,8.819319,9.397162,5.546169,9.083411,8.418207,7.521248,8.125443,9.906297,9.191342,10.094415,7.87763,7.751848,7.650492,10.129407,9.119455,7.944813,7.227043,9.118579,8.772868,9.183145,9.413714,5.383609,6.971102,8.880626,9.233093,8.523829,10.483559,10.261628,9.159597,8.127235,5.78034,9.442775,10.249877,8.292137,9.733313,8.489881,10.289023,8.051148,9.785972,8.37698,9.792435,8.735967,9.497329,8.010279,9.30493,8.493512,9.616167,8.277499,8.991475,4.700139,9.732336,9.818453,10.213439,9.304909,9.182432,8.212137,8.598233,9.89653,7.083401,7.506372,7.430576,6.566264,9.80949,7.55243,5.963191,7.287945,7.478033,6.58741,6.928362,"EFS_G5"
"67","PADXAS",6.399318,7.649937,7.22723,7.757609,6.788713,6.186349,8.641357,7.813788,8.367568,7.551333,8.853106,8.197635,7.709628,6.068975,7.647503,7.338981,8.663565,7.741373,8.300927,6.295153,7.388397,6.616196,7.048026,8.396342,6.962165,7.592815,7.756694,7.217224,6.035143,7.253348,6.531207,9.263014,6.003105,10.073514,8.501691,8.341956,8.510568,10.983789,8.947179,8.617754,3.686605,9.153635,7.892069,8.013415,8.582644,9.657106,8.942526,10.23691,7.074823,7.68431,7.636122,9.545573,9.191077,7.834671,7.02719,9.269044,8.570107,8.957568,8.848502,5.263828,6.996575,9.128238,8.341248,8.410477,9.297423,10.22179,9.556385,8.910685,5.278802,9.192604,10.277852,7.904243,9.648919,8.065718,10.325831,7.862702,10.125957,8.294503,9.397629,8.883034,9.393816,7.636348,8.811065,7.987488,9.470798,8.232453,8.759982,5.029179,9.611924,9.184197,10.346224,9.067893,8.525502,7.611031,8.650871,9.344843,7.482487,7.320261,7.437855,6.882095,9.949864,7.211305,6.245782,7.303721,7.04301,6.99586,6.819188,"EFS_G5"
"68","PADXBB",6.162441,6.995936,7.236398,6.938264,6.86681,5.489362,7.548313,7.064142,8.156477,6.798024,8.834285,8.052903,7.075206,5.79257,7.398905,6.0607,7.945288,7.516838,6.903731,6.019973,6.570165,6.464495,6.629907,9.123238,6.194081,7.148128,6.839174,6.709607,5.839032,6.486335,5.674745,9.953206,5.134732,10.164399,9.074522,8.417117,8.364359,10.652493,9.397601,9.598387,5.191564,10.038814,8.529368,8.390335,8.228579,9.132559,9.651707,10.095805,7.084308,7.244256,7.054427,10.248782,9.080626,9.140504,7.146146,9.277593,8.013882,9.505683,10.133073,6.548627,7.556306,9.709039,8.953142,8.647306,9.323018,10.27107,9.770339,8.658848,5.159085,9.471842,10.217504,8.96231,9.205917,8.43459,10.598144,7.478443,9.873836,8.09798,10.384439,9.782203,9.652924,6.900224,8.50707,8.092674,9.454438,8.992347,9.984021,5.815454,9.686364,9.667437,9.840134,9.2959,8.653249,7.642971,8.836113,9.320163,7.082002,7.200106,6.192932,5.398077,9.682752,6.488601,5.263112,6.648715,5.444209,7.54961,6.528152,"EFS_L5"
"69","PAIDJS",7.017496,7.959142,7.340769,7.295987,6.901813,6.783104,8.218371,8.184873,8.491683,6.795672,8.324958,8.156885,7.976299,5.929253,7.592988,8.055358,7.97053,8.033762,8.037941,6.566664,7.520213,6.518376,7.428149,8.17378,6.948399,7.802233,7.830613,7.0536,5.875575,6.955343,6.898236,9.594668,5.76973,10.20917,8.712072,8.156921,8.645503,10.256579,8.641942,8.516289,4.659163,9.287962,8.501099,8.146737,7.929494,9.147379,9.29428,10.666853,7.852448,7.610257,7.767381,9.484168,9.14001,8.258,7.059219,9.239948,8.810379,9.254075,9.697815,6.029142,6.838286,9.190133,8.561806,8.393598,9.765611,10.089398,9.343534,8.490674,5.636222,9.097677,10.077406,8.510952,9.289855,8.60942,9.994756,7.82941,9.950069,8.278012,10.127649,8.96538,9.406235,8.036956,9.20969,8.139676,10.264075,8.651603,9.071635,5.194773,10.596121,9.346024,9.889084,8.836408,9.16368,7.940765,8.356474,9.511815,7.165248,7.288555,7.2784,6.63023,9.75356,6.911537,6.486024,6.739295,7.485707,7.32375,7.522197,"EFS_G5"
"70","PAIEIF",7.946656,9.123166,7.235898,7.840932,8.150369,6.604234,8.626217,8.835436,8.787005,7.701585,8.394116,8.032791,8.904847,6.687251,8.698504,8.5002,8.558374,8.469279,8.337642,8.083818,8.345636,6.998266,7.79912,9.358507,7.530947,7.771259,8.271692,7.420795,7.043899,7.307726,7.611686,10.031668,6.234585,10.489948,9.060062,8.378974,9.26884,10.794678,9.176699,9.947441,5.132164,9.891546,9.058803,8.442662,8.449984,9.668772,10.20269,10.62071,8.287001,8.078212,8.217146,10.193903,9.075844,7.925807,8.080978,9.963809,9.114988,9.906455,9.767456,6.023134,6.698097,9.489657,9.344957,8.989669,10.077425,10.06049,9.531617,8.581344,6.583745,9.626849,10.557362,8.693562,10.19822,9.042038,10.012634,7.995585,10.108202,8.473119,10.542951,8.898694,9.711281,8.445397,9.772162,8.442136,10.726083,9.104345,9.597686,5.399279,10.447109,10.200854,10.411681,9.70003,9.377907,8.081502,8.676734,10.043312,7.384538,7.650004,8.056649,7.1004,10.862965,7.906633,6.816659,8.307245,8.531658,7.20058,8.130397,"EFS_L5"
"71","PAILZJ",7.139245,8.850804,7.454745,7.789286,7.081465,5.998007,8.121158,7.498807,8.573094,7.637766,8.840144,8.160469,7.498236,6.252748,8.447096,7.121322,8.283907,7.679105,8.154263,6.294243,7.677168,6.690148,7.2853,9.018712,7.051549,7.732947,6.964107,7.349696,6.875156,6.76756,7.057428,9.789193,6.644048,10.196113,8.752655,8.45592,9.027683,10.641264,9.092352,9.635989,5.39694,9.529694,8.339498,8.14958,8.918954,9.788274,9.595137,10.443673,7.674627,8.192091,8.176819,9.612521,8.976732,7.89945,7.440238,9.871959,8.68399,9.319398,9.449015,6.130129,6.983418,9.297647,8.739388,8.780901,9.955232,10.215776,9.420843,8.713006,6.050966,9.480155,10.062887,8.53529,9.538808,8.30236,10.109544,8.080232,10.108697,8.382544,9.898233,8.872989,9.517633,7.931265,9.040558,8.363433,9.983698,8.834818,9.699588,5.361061,10.052851,9.71598,10.036083,8.643352,9.6731,8.278747,8.777595,9.610197,7.421694,7.156634,7.917811,7.149788,9.940762,7.083319,6.305292,7.556438,7.023136,7.44554,6.928423,"EFS_L5"
"72","PAIMDS",6.835442,7.256068,7.027443,7.668227,7.254686,6.193898,8.328639,7.607741,8.612492,7.473059,8.141531,7.974651,8.011453,6.159785,7.996076,8.047355,8.63566,7.247961,8.650187,6.799236,7.653754,6.365231,7.045585,8.341385,6.959544,7.285686,7.378157,7.155113,6.529557,6.47439,6.888534,9.502111,5.43629,9.807448,8.390173,8.082444,8.819143,10.215188,8.490731,9.410934,4.777022,9.156471,8.226048,7.41282,8.606559,9.582109,9.130463,10.280897,7.323241,7.461936,7.466831,9.549368,8.841049,7.60014,7.323142,9.6154,8.714846,9.388055,8.963002,5.867433,6.524274,9.147227,8.613535,8.416473,9.784163,9.386153,9.296164,8.54741,5.679611,9.091649,9.745348,8.291986,9.131259,8.109524,9.832233,7.952529,9.707404,8.104791,9.649867,8.328327,9.212985,7.52668,9.357117,8.190711,9.526148,8.459731,9.119444,5.240423,9.716421,9.464202,10.422834,8.336095,8.932157,7.546561,8.365887,9.318373,6.99658,6.83852,7.85833,7.31993,10.489774,7.472718,6.563209,7.663515,7.144428,6.37257,6.918142,"EFS_L5"
"73","PAIPGU",6.970031,8.039809,7.324728,7.967412,7.111731,6.848186,9.395256,7.723943,8.620862,7.897715,9.059576,8.733371,7.786312,6.382088,8.1472,7.614497,8.694549,7.790569,8.280131,7.357316,7.591442,7.074496,7.144816,9.295732,7.17969,8.054717,7.739251,7.39981,6.377588,7.051032,6.918061,9.818521,5.675677,10.151409,9.461031,8.600156,9.256428,11.241527,9.3215,10.013242,4.877381,10.036734,9.112671,8.647148,8.984025,9.681617,9.823941,10.824914,8.062639,7.955549,8.452534,10.252904,9.269386,8.531509,7.454074,9.734028,8.693913,10.049157,10.321345,7.122121,6.833628,9.861062,9.577563,9.379488,10.130466,11.114898,10.088817,9.37693,5.651785,10.172964,10.671459,8.939583,10.199221,9.198408,10.688901,8.689269,10.413169,8.581684,10.261764,9.967233,9.990768,8.357053,9.158112,8.467709,10.036137,8.84073,9.816596,5.683378,10.106091,10.060905,10.097819,9.777818,9.772607,8.8968,9.072729,9.813708,7.52734,7.400873,7.674134,7.034805,10.301471,7.292697,6.904869,7.331385,7.052359,8.43826,7.126518,"EFS_L5"
"74","PAIPUD",6.83185,7.555558,7.004306,7.61039,6.873544,5.997037,8.452105,7.265944,8.530456,7.494612,7.94369,7.994269,8.003429,6.469975,7.727824,7.765019,8.313924,7.464872,7.845746,6.747882,7.537431,6.626544,7.176681,8.348665,7.020629,7.558985,7.454995,7.086474,6.652338,6.886136,6.4057,9.664792,5.211075,9.72471,8.432882,8.102391,8.623019,10.322197,8.436767,8.961433,4.796626,9.119657,8.082882,7.591299,8.625711,9.803229,8.878325,10.079416,7.836328,7.392598,7.624412,9.501219,9.004647,7.618944,7.152537,9.113546,8.685982,9.498875,9.171651,6.301118,6.573082,9.018911,8.512885,8.448005,9.49421,9.637846,8.99117,7.854902,5.443572,9.324716,9.732135,8.285707,8.706637,8.392323,9.884721,7.964209,9.49859,8.061918,9.653627,8.600347,9.204159,7.52997,8.786952,8.186333,9.420682,8.340972,9.077862,4.971006,9.516757,9.356007,9.826661,8.518969,8.715602,7.663324,8.322712,9.121334,7.190099,6.841244,7.634159,6.986008,9.533442,7.21704,5.937411,7.532373,7.399393,6.98744,6.904333,"EFS_G5"
"75","PAIRDP",7.297808,8.750655,7.438843,8.246419,7.247981,6.989585,9.170899,8.754841,8.925536,7.551892,8.856354,9.234995,8.02167,6.477274,9.037727,8.337559,8.736409,8.167306,8.478151,7.278062,7.875749,7.761492,7.471731,8.536063,7.760367,7.759473,7.952989,7.627855,7.029451,6.903276,7.482374,11.045584,6.186265,11.388244,9.851837,8.973885,9.50135,11.553989,10.017594,10.768228,6.073532,10.550937,9.782239,9.031531,9.530341,9.942694,10.890488,11.430478,8.957541,8.522313,8.532191,10.886453,9.855086,9.093803,8.482782,9.90195,9.792309,10.099765,10.910481,6.898689,6.826839,10.013253,9.897454,9.711054,10.746235,11.177734,10.421964,8.968634,6.114933,10.242085,11.260285,9.621153,10.881609,9.339874,11.131811,8.990957,10.708197,8.963902,10.838027,9.934688,10.833255,8.454389,10.00535,9.004629,11.012253,8.337679,10.651081,5.979049,11.378376,10.915739,11.339809,10.217538,10.431894,9.172896,9.374866,11.030646,7.623244,7.892687,8.463372,6.991151,10.303941,7.906622,7.119255,7.672359,7.872368,7.59747,7.378345,"EFS_L5"
"76","PAIRIK",6.246036,7.112991,7.137396,7.407928,6.644443,5.729434,8.291532,7.557892,8.738073,7.216313,7.9454,8.207389,7.735089,6.036028,7.545993,7.08026,8.247881,7.530609,7.454591,5.923024,7.477434,6.426077,6.911921,7.972413,6.429567,7.318786,7.307187,7.051266,5.714296,6.599877,6.488184,9.440812,5.79112,9.691244,8.553836,7.997292,8.191193,10.551662,8.772842,8.746362,4.10061,8.865435,7.795103,8.021201,8.272232,9.469169,8.915132,10.345552,7.179034,7.637585,7.803831,9.464971,8.702253,7.719536,6.802413,8.671794,8.385453,9.121615,9.107629,5.983744,6.905368,8.766054,8.113694,8.368887,9.266913,9.670371,9.068304,7.961213,5.023088,8.967837,9.590499,8.072133,8.36364,8.122968,10.085816,7.897309,9.676775,7.963998,9.351123,8.899758,9.189141,7.682399,8.765945,8.073529,9.44591,8.373369,8.746147,4.757709,9.996687,9.584575,9.884366,8.641857,8.857166,7.721627,8.395287,9.310867,7.15347,7.086577,7.160534,6.681527,9.03854,6.597981,5.546587,7.199403,6.731267,7.01604,6.571187,"EFS_G5"
"77","PAIRLN",7.145739,8.601364,7.295856,8.29031,7.072442,6.087501,8.906269,8.404397,8.740026,7.577566,9.186135,9.177536,7.95775,6.306667,8.22203,7.997019,8.237977,7.807248,7.847235,7.096491,7.713945,7.183908,7.094502,8.80372,7.340636,7.567019,7.604016,7.399404,6.705032,7.094571,7.144734,10.380491,6.215603,10.484409,9.472039,9.087236,9.283519,11.321668,9.544899,9.890196,5.838305,10.15244,8.975976,8.913631,8.807477,10.229226,9.646639,10.865393,8.112934,8.011115,8.493292,10.253369,9.680118,8.261546,7.949089,9.869036,9.202688,9.936378,10.118954,6.752769,6.768965,9.495319,9.272739,9.499998,10.384414,10.608604,9.972656,8.68467,5.577407,10.067583,10.671948,8.943383,9.910609,8.707527,10.580329,8.644905,10.716175,8.621616,10.344504,9.696263,10.012021,8.466008,9.310746,8.766989,10.277795,8.069155,9.744708,5.586615,10.366434,10.276483,10.378697,9.795884,10.084449,8.605293,8.978343,9.50232,7.709435,7.124362,7.776611,6.895606,10.396529,7.229889,6.240409,7.274208,7.421231,7.36092,7.450864,"EFS_G5"
"78","PAISNS",6.581133,7.778423,7.267145,8.049759,6.505474,7.309537,8.720145,7.612292,8.680795,7.284365,8.289029,8.764047,8.034461,6.258588,7.01092,7.22545,8.224969,7.500816,7.872551,6.063448,7.426874,6.286093,6.98987,8.086923,6.515717,8.343218,7.744648,7.528931,6.218232,7.027816,6.121685,10.151159,5.85939,10.141101,8.451456,7.86214,8.805199,10.467282,9.174258,9.258159,5.161405,9.950209,8.403454,8.675977,8.297487,9.237744,8.914575,10.774954,7.533123,7.101395,7.881586,9.912603,8.985677,7.866063,7.480158,8.922441,8.666789,9.783315,9.407384,6.435324,6.964331,9.324619,8.443797,8.906463,9.445616,10.209762,9.313485,8.680786,5.333086,9.883184,9.674973,8.568415,9.379764,8.342119,10.427579,8.426364,10.32525,8.521689,9.888535,9.340625,9.563231,8.555288,8.29805,8.468863,10.126987,8.719861,9.385112,5.06331,10.595985,9.707919,10.089945,8.550071,9.76726,8.307496,8.376075,9.181056,7.58204,6.888133,7.695769,6.758766,9.63279,7.193284,6.732714,6.915866,6.767296,6.76278,7.236292,"EFS_L5"
"79","PAITCI",7.367998,8.361697,7.700731,8.098997,7.587997,7.038369,8.451775,8.067939,8.90435,7.267191,8.172254,8.094948,8.571421,6.441187,8.37172,8.699252,8.094041,8.478463,8.092348,7.036907,8.368007,6.989629,7.627495,8.917347,7.054044,8.108724,8.095793,7.658462,6.996627,7.161966,7.100797,9.748657,5.91233,10.12364,9.234288,8.081055,8.621026,10.513453,8.875279,9.326315,5.34521,9.975317,8.043981,8.36852,8.597152,9.344006,9.768403,10.486103,7.986459,8.13767,7.775176,9.977462,9.034885,8.047016,7.535056,9.093997,8.950944,9.446357,9.480722,6.534126,6.898785,9.729415,8.718981,8.840691,9.765419,10.051436,9.40762,8.660989,5.784505,9.323305,9.818312,8.323343,8.96298,8.554151,10.202316,8.234215,9.904501,8.704581,9.984651,8.433464,9.571993,9.068382,9.02256,8.138634,9.477468,9.200794,9.401844,5.233631,9.839041,9.568129,10.032393,8.825898,9.167159,8.189044,8.38533,9.651626,7.384865,7.478672,7.886797,7.323896,10.462119,7.543217,7.0197,7.336639,7.855307,7.37776,7.601462,"EFS_L5"
"80","PAITEG",7.239795,9.409815,7.491061,7.876912,7.578348,5.769773,8.101958,7.633763,8.76715,7.493404,8.804532,8.480232,7.525113,6.3928,8.936152,7.635993,8.303245,8.273021,7.950853,6.921397,8.374675,7.146562,7.261851,9.427315,7.786145,7.989888,7.231503,7.512397,7.483081,7.204392,7.249607,10.266727,6.356497,10.609662,8.953924,8.49115,9.038019,10.821681,9.337459,9.710085,5.875512,9.540702,8.695652,8.077592,8.828433,9.380017,9.784897,10.722406,7.732422,8.338699,8.181626,10.319251,9.420454,8.730097,7.424825,10.377472,8.892567,9.525475,9.690345,6.060228,6.910602,9.611311,9.243995,8.914987,10.084808,10.440922,9.992824,8.788921,5.973902,10.061097,10.69765,9.000647,9.918337,8.880058,10.530763,7.974972,10.521502,8.505564,10.317581,9.234807,9.823791,7.81623,8.971244,8.445499,10.629277,9.106396,10.000242,5.372381,10.173261,9.917081,10.036794,9.346948,9.423205,8.190743,9.171093,9.561902,7.657293,7.729203,7.525188,6.801294,10.244625,7.168557,6.163374,8.144215,7.093825,8.05437,7.49979,"EFS_L5"
"81","PAITRM",7.220697,8.345398,7.545874,8.262932,7.247259,6.487226,8.881109,7.58058,8.615631,7.787801,8.35376,8.470085,8.15215,6.448907,8.229531,7.918157,8.668319,7.700633,8.346325,6.643827,7.653288,6.693047,6.994754,8.613907,7.036928,7.809904,7.562577,7.442583,6.526894,6.897592,7.469044,9.822698,5.689583,9.906471,8.709629,8.172855,8.648965,10.420485,8.96177,9.475916,4.851936,9.656631,8.248649,8.123951,8.73517,9.440067,9.044226,10.483455,7.850901,7.749452,7.844557,9.834504,9.075998,7.745213,7.388525,9.69332,8.777229,9.637895,9.371896,5.970614,6.798774,9.250068,8.848819,8.723128,9.865871,10.01286,9.373391,8.894521,6.223337,9.434984,10.11191,8.56977,9.44122,8.514215,10.061968,8.215114,9.95955,8.420972,9.692808,8.936782,9.412721,7.964673,9.261076,8.360876,9.730413,8.658371,9.718995,5.372993,9.874251,9.890287,10.416306,8.799908,9.555196,8.031007,8.74033,9.483517,7.242624,6.950097,7.877795,7.482106,10.07635,7.353375,7.128682,7.563999,6.983188,6.84893,7.073334,"EFS_G5"
"82","PAITZV",7.611319,8.248098,7.658726,8.345087,7.771497,6.670502,8.235229,8.830783,8.905997,7.434498,9.182784,9.056856,8.516266,6.550931,8.233686,8.292825,8.979651,8.629381,8.056363,7.576693,8.169281,6.908701,7.391172,8.533637,7.090128,8.002742,7.879987,7.65101,6.90525,7.125454,6.739875,10.307525,6.265297,10.393161,9.488233,8.911772,9.289744,11.351815,9.767152,10.394213,5.225364,10.096656,8.648353,8.932377,8.876814,10.266991,9.592755,10.928316,8.110211,8.299795,8.366767,9.995522,9.439788,8.493792,7.883402,9.476277,9.221477,9.57517,9.974008,6.314869,6.893953,9.449957,9.309989,8.997495,9.97704,10.921227,9.806304,8.826483,5.895885,9.819922,10.659338,8.680816,9.897028,8.826463,10.880376,8.39335,10.674765,8.894208,10.287931,9.980759,10.043229,8.632998,9.156931,8.478759,10.467213,9.257113,10.147958,5.645756,10.51443,9.887199,10.608561,10.483717,9.863281,8.88617,8.896584,9.805105,7.514755,7.467504,7.287007,6.944,10.493994,7.735475,6.205248,7.038939,8.044877,7.75448,7.746159,"EFS_G5"
"83","PAIUJB",7.222854,8.211659,7.412258,8.264383,6.584896,6.858503,9.344466,8.580607,8.752324,7.531544,8.734741,9.299286,7.844141,6.595229,8.969459,8.312801,8.470096,7.95716,8.55797,7.421596,7.906058,7.91234,7.333434,8.101993,7.213891,7.60318,7.942799,7.509205,6.670937,6.867474,7.570389,10.583905,5.86924,11.142778,9.574692,8.765099,9.841036,11.45371,10.015657,10.326624,5.687344,10.365982,9.774871,8.792632,9.277269,9.816626,10.685219,11.069362,8.894753,8.595906,8.680782,10.736459,9.619811,8.91276,8.52962,10.054454,9.676288,10.430603,10.886241,6.414467,6.780858,9.671505,10.035858,9.585453,10.744023,11.11915,10.284988,9.125632,5.9167,10.125654,11.027221,9.361479,10.793158,9.564143,11.02166,9.072109,10.520421,8.845817,10.746472,9.724649,10.584967,8.843879,9.858277,8.92805,10.849353,7.973667,10.005295,5.431112,11.328215,11.035922,11.368842,9.975855,10.341179,8.96044,9.26131,10.884327,7.731282,7.672035,8.691637,6.968854,10.001369,7.571729,6.947878,7.83055,8.117702,7.65751,7.358512,"EFS_L5"
"84","PAIVHE",6.654164,8.740622,7.418976,7.76622,6.778925,6.331649,8.57152,7.503057,8.644165,7.541172,8.531867,8.398228,7.640087,6.222474,8.053034,7.675218,8.147026,7.71853,7.565335,6.269986,7.798481,6.725756,7.12579,8.5625,6.994208,7.803049,7.251702,7.264094,6.668463,6.88409,6.963712,9.856016,5.87295,10.214224,8.633915,8.488653,8.649854,10.740047,9.07917,9.38855,5.297521,9.573724,8.373384,8.310613,8.932071,9.311992,9.496424,10.513343,7.442807,7.978846,7.965017,9.689137,9.32377,8.079583,7.318289,9.725533,8.905336,9.566167,9.60422,6.154995,6.900404,9.369275,8.561044,8.944107,10.147585,10.368003,9.396961,8.817249,5.31734,9.378035,10.101832,8.438039,9.248252,8.28875,10.602573,8.312028,10.083868,8.439578,9.876425,8.995942,9.606352,7.879144,8.954249,8.510497,10.013535,8.478753,9.724032,5.254538,10.073839,9.738016,10.030627,8.959783,9.650118,8.510492,8.821533,9.291896,7.413884,7.184978,7.59867,7.188861,9.34251,6.737498,6.300484,7.183447,6.681804,7.28274,6.881088,"EFS_L5"
"85","PAIVMJ",6.904972,8.245617,7.130154,7.399922,6.707901,6.406147,8.372461,7.556257,8.513679,7.252668,8.10601,8.325273,7.527095,6.188288,8.121819,7.897926,7.924112,7.602828,7.846549,6.759482,7.304281,6.614809,6.99237,8.254017,7.180852,7.513135,7.731408,7.691297,6.470053,6.61856,6.884143,9.7137,5.774148,10.213168,8.661785,8.467501,9.293188,10.367119,8.904623,9.898307,4.633251,9.719317,9.025469,8.171347,8.311737,9.019566,9.484809,10.552578,7.753093,7.943576,7.900956,9.365376,9.327236,8.002387,6.941407,9.4259,8.989569,9.607885,9.250026,5.352089,6.64259,9.55172,9.398578,8.842863,10.120403,10.130319,9.345955,8.507059,5.490749,9.44579,10.094185,8.872951,9.53306,8.698618,9.861979,8.244083,9.912677,8.282257,9.92213,8.890162,9.47397,7.934482,9.483535,8.434819,10.120933,7.877415,9.52888,5.721302,10.530104,9.86442,9.932281,8.626338,9.642789,8.251791,8.365172,9.885817,7.205722,7.083041,7.556971,6.66341,9.446353,7.022666,6.669031,6.76257,7.061767,7.07572,7.064819,"EFS_G5"
"86","PAIVZR",7.043121,8.443191,7.26253,8.102354,6.493046,6.472436,8.680404,8.147343,8.923753,7.77565,8.969383,8.850805,7.59277,6.623902,8.729879,7.624029,8.373292,8.011742,7.919853,6.38748,7.870976,7.474878,7.400031,8.468643,7.271097,8.030098,7.689617,7.327383,6.83328,6.905537,6.723588,10.487419,5.747933,10.75283,9.457578,8.690188,9.151318,11.551101,9.746961,9.609256,5.511095,9.802171,8.902064,8.427323,9.392658,10.139933,10.250755,10.973343,8.327192,8.857307,8.521218,10.35983,9.837218,8.807123,8.030392,9.761506,9.496572,9.713197,10.394956,6.287946,6.919295,9.507727,9.059322,9.318932,10.470107,10.689398,10.063472,8.761305,5.369735,9.905596,10.692362,8.721965,10.149455,9.031937,10.8807,8.66042,10.374813,8.782375,10.162963,9.317222,10.16755,8.55626,9.795483,8.772868,10.23154,8.070556,9.676435,5.235365,11.006755,10.423009,11.121326,9.696289,9.849933,8.838198,9.025336,9.999673,7.709722,7.409798,8.107459,7.404716,9.949675,7.313489,6.099488,7.888086,7.702564,7.67744,7.040423,"EFS_L5"
"87","PAIWHU",6.562774,6.958489,7.107522,7.400534,6.82364,5.859862,8.335075,7.611957,8.451051,6.517322,7.809173,8.047242,7.681341,6.036228,7.393599,7.325427,7.973596,7.712282,7.973204,6.36301,7.103934,6.619109,6.983735,7.993006,6.894073,7.579348,7.507717,7.243208,6.375407,6.957571,6.340337,9.298128,5.61775,9.744315,8.525618,7.687602,8.142717,10.202393,8.432234,7.95114,4.4049,8.80848,7.798464,7.760418,7.658883,8.896358,8.493446,10.148439,7.125606,7.171145,7.190436,9.053372,8.681937,7.87052,6.554575,8.715424,8.409353,9.024182,8.438325,6.245481,6.50727,9.105632,8.068496,8.295271,9.148782,9.993728,9.267132,8.145909,5.645647,9.230459,9.220335,8.451689,8.440531,8.26719,9.769961,7.671714,9.465083,8.06114,9.584054,8.428354,9.376279,7.462556,8.594922,7.923858,9.454138,8.296803,8.302828,4.749789,10.091871,8.78383,9.512839,8.428,8.978052,7.572959,8.239326,9.002221,7.234575,7.385016,7.239857,6.217029,9.509732,6.356559,5.798744,6.340622,6.930323,6.55768,7.237534,"EFS_G5"
"88","PAIWVG",6.231224,7.866188,7.468075,7.594647,7.107528,6.225378,8.473108,7.642684,8.663197,6.998419,8.971677,8.596223,7.507842,6.406815,7.428081,6.792068,8.832657,7.82905,7.727725,6.959742,7.452183,6.545836,7.226002,8.644767,7.047844,7.916399,7.517239,7.399863,6.019646,6.919333,6.375595,9.608685,6.178505,10.277705,9.010924,8.5032,8.254811,10.705438,9.248252,8.735657,5.035829,9.237672,8.472116,8.289337,8.87511,9.626689,9.18202,10.735196,7.370896,7.965338,7.881779,9.762037,9.30594,8.373717,6.804152,9.22812,8.535828,9.433118,9.278315,6.766704,7.064189,9.423138,8.513898,8.877703,9.953857,10.574665,9.8967,9.13487,5.344875,9.427008,10.067724,8.7407,9.407252,8.661118,10.246319,8.088401,10.354953,8.347228,9.844257,9.286932,9.702177,8.205716,8.909408,8.163987,9.951552,8.778776,9.289331,5.497966,10.114763,9.445765,10.033982,9.091672,9.371205,8.168638,9.061585,9.343739,7.640425,7.358175,6.753822,6.769023,9.810139,6.718253,6.068756,6.82582,6.408957,6.41636,7.030137,"EFS_L5"
"89","PAIXLC",6.475989,7.576773,7.264884,7.807562,6.769738,6.659144,7.963835,8.055435,8.371364,7.301934,8.143634,8.543278,7.738015,6.125126,7.962951,7.969524,8.157389,7.769727,8.261958,6.979311,7.372243,6.997693,6.895051,8.132575,7.20153,7.545395,7.794896,7.298827,6.226097,6.847736,6.386262,9.491195,5.847067,9.77715,8.516835,8.297801,8.705637,10.361513,8.98609,9.095559,5.260324,9.806312,9.078256,8.3397,8.197129,9.218777,9.353333,10.358375,7.428262,7.770678,7.366332,9.174824,9.260431,8.206166,7.143222,9.357846,8.90545,9.750212,9.738574,6.170199,6.761477,9.451197,8.879467,8.262473,9.916559,10.364661,9.731176,8.835541,5.602488,9.385702,10.45512,9.038353,9.669209,8.750451,9.944903,8.195386,10.097317,8.127496,9.843145,9.171146,9.501671,8.041949,9.433066,8.173959,10.049338,7.985777,9.2461,5.427239,10.550664,9.628523,10.304738,9.084125,9.126454,8.324945,8.663011,9.962605,7.40091,7.441092,7.371769,6.904293,9.870043,7.470602,6.52584,7.04303,7.058822,7.1361,7.26746,"EFS_G5"
"90","PAIXNG",6.833987,7.723429,7.548274,8.117802,6.656979,7.100595,9.014527,8.486604,8.548049,7.635249,7.866422,9.180658,7.778705,6.921874,8.17758,8.17685,9.063735,7.787054,8.358266,6.478539,7.737322,6.863391,7.410646,8.753695,7.752048,7.993481,8.148568,7.535909,6.517051,7.154581,6.852689,9.876552,5.89735,10.190661,8.969241,8.320745,8.482619,10.693384,8.930838,8.761777,5.868259,9.221521,8.89943,8.025339,8.257101,9.158592,9.493251,10.735278,7.956232,7.985168,8.039729,10.094308,9.512707,8.595284,7.342065,8.175529,8.774433,9.03703,9.737974,7.435485,6.817625,9.421557,9.035392,9.081267,9.982723,10.516875,9.848094,8.587723,5.821795,9.621148,10.434326,8.764781,9.086659,8.562419,10.217413,8.019252,10.315569,8.462941,9.911858,9.593688,9.723987,8.218869,9.280297,8.532281,10.003122,8.284951,9.529421,5.315738,10.576306,9.722019,10.542596,8.841128,9.738116,8.196944,8.702363,9.68212,7.849847,7.763293,8.486419,6.82184,10.208138,7.244253,7.554305,7.521799,7.666064,6.90497,7.167955,"EFS_L5"
"92","PAJYHP",6.587713,7.485184,7.213639,7.85114,6.650766,5.868647,8.439133,7.161411,8.685428,7.500829,8.183018,8.14785,7.802377,6.593574,7.9129,8.176556,8.628787,7.484316,8.276087,6.641399,7.590581,6.317236,6.986098,7.886575,7.025136,7.600487,7.262842,7.030303,6.301892,6.92538,6.746457,9.41235,5.611863,9.561161,8.518371,8.085183,8.666954,10.50746,8.705629,9.356568,4.661979,9.096669,7.852621,8.078975,8.090048,9.6723,9.126665,9.994704,7.477738,7.755875,7.588584,9.404067,8.855052,7.701167,6.953535,9.185993,8.434483,9.460468,9.078346,6.090044,6.642769,9.014105,8.267941,8.54259,9.625052,9.791236,9.091681,8.743942,5.605597,9.299352,9.777504,8.306196,9.439519,8.109355,10.059656,7.807343,9.739865,7.854353,9.498199,8.592394,9.35732,8.042086,8.614331,8.123864,9.211342,7.805536,9.005756,4.951292,9.604823,9.346484,10.117979,8.842892,8.993398,7.869843,8.393745,9.458218,7.443907,6.908402,7.644778,6.799332,10.005876,6.989683,6.338369,7.388773,6.985686,6.71794,6.950872,"EFS_L5"
"93","PAJYLA",7.484274,8.352377,7.175306,7.861328,7.210773,6.469693,8.394481,7.946066,8.618348,7.592554,8.54311,8.765665,8.072417,6.834848,8.150672,8.365369,8.385295,8.160578,7.618898,7.00879,8.192998,7.260398,6.87331,9.050952,7.003455,7.790755,7.700169,7.392389,6.209746,7.127681,6.476172,10.085101,6.51736,10.504778,8.584044,8.344022,9.111091,11.01708,9.461747,9.623512,5.190393,9.611287,8.998133,8.250593,8.558292,9.624716,9.813318,10.737744,8.195072,7.894981,8.405337,10.281513,9.392176,8.185763,7.443924,9.547491,8.918352,9.75396,9.901584,7.189636,7.223901,9.805802,9.085523,8.670831,10.1851,10.522823,9.709276,8.932125,6.606097,9.768469,10.588578,8.769992,10.04145,8.726564,10.323389,8.316208,10.321542,8.633956,10.341727,9.209734,9.909842,8.607635,8.98396,8.477346,10.186675,9.042677,9.824417,5.560236,10.14249,10.070453,10.28732,9.799686,9.57491,8.84084,8.88149,10.080606,7.602132,7.470272,8.10411,6.872362,10.275194,7.687589,6.36403,7.315697,7.339158,7.58603,7.614363,"EFS_L5"
"94","PAJYVA",6.753056,8.047052,7.606585,8.082721,6.159999,6.695703,9.007232,8.020841,8.659227,7.183363,7.851725,8.787767,7.239299,6.450792,8.134679,7.784091,8.300204,7.861291,8.535959,7.084501,7.196917,7.411732,7.468239,8.41804,7.664786,7.87179,8.004023,7.372354,6.364308,7.07434,7.294809,9.632355,6.210325,10.40383,9.145368,8.537588,8.818474,10.969904,9.641295,9.130446,5.89315,9.582905,8.702448,7.751964,8.203446,9.631296,9.448199,10.557987,8.114618,8.157585,8.152017,9.881116,8.942358,8.621177,7.615637,8.79002,8.489507,9.21323,9.967657,6.32223,6.842182,9.496428,9.095742,9.160606,9.947075,10.398174,9.823628,8.74035,5.641404,9.545344,10.18488,8.850384,9.580494,8.400853,10.151754,8.001903,10.204114,8.336914,10.029664,9.157986,10.145586,7.941987,9.524619,8.492753,10.025038,7.801621,8.906898,5.232912,10.801415,9.777296,10.799813,9.159917,9.765648,8.285904,8.924494,9.995702,7.883363,7.894804,8.200161,6.475575,9.557415,7.289077,6.97407,7.086492,7.503512,10.5336,6.970934,"EFS_L5"
"95","PAJZUU",7.31453,8.639045,7.91017,7.987442,7.672089,6.425904,8.321628,8.247058,8.746449,6.985153,8.321378,9.320275,7.930701,6.678402,7.520765,6.930177,8.278165,8.626164,7.453711,7.934078,8.313342,6.905826,7.923887,9.796138,6.459504,7.624338,8.500166,7.67376,6.400533,7.339232,6.531422,10.427679,6.765433,10.932935,9.631352,8.914648,9.027004,11.192795,9.910044,10.047232,5.307122,9.850098,9.216881,8.860975,8.721475,9.305599,9.981798,11.143013,8.316575,8.064733,7.579384,11.007431,9.395016,9.825796,7.988128,9.746666,9.228481,9.984618,10.637931,6.474438,7.479957,9.884129,9.669011,9.145956,10.118417,10.924631,10.570618,9.263875,6.153726,10.014821,11.127163,9.32703,9.657153,9.439355,10.996083,8.476334,10.585827,8.657393,11.019359,10.351134,10.222338,8.823545,8.905118,8.282211,10.81307,9.523111,9.725261,6.16531,11.069155,10.494302,10.572628,10.097775,9.835944,8.736136,9.340592,10.551823,7.659347,8.030827,7.360909,6.183142,11.011593,7.161629,6.267468,6.831251,7.073217,7.29236,7.969546,"EFS_L5"
"96","PAJZWL",6.262869,6.958572,7.589022,7.956622,6.619123,6.286123,8.754708,7.912273,8.848604,7.393716,8.179871,8.439876,7.775616,6.512038,7.281983,7.456093,9.133788,7.800957,8.042118,6.362475,7.408061,6.637208,7.400847,8.381991,7.108677,7.894551,7.061781,7.820423,6.231448,7.172349,6.987563,9.640849,6.441555,10.032943,8.865367,8.051872,8.348216,10.893431,9.06517,8.99758,4.376269,9.293871,8.423871,7.456052,8.236942,9.634763,8.789251,10.526395,7.540675,7.265141,7.86062,9.529332,9.507876,8.230357,7.443302,9.05048,8.512025,9.245345,9.412186,6.522213,6.844382,9.336676,8.465999,8.499233,9.951736,10.497645,9.685353,8.741404,5.106997,9.596695,10.226024,8.085162,9.143403,7.998928,10.154434,7.929276,10.126467,8.227502,9.961694,9.341514,9.674791,8.234148,8.69917,8.152854,9.824738,8.795197,8.468234,4.768521,10.473463,9.427929,10.385175,9.185994,9.154351,8.297022,8.672096,9.018582,7.654986,7.058424,7.884203,6.796638,9.504001,6.65365,6.603794,7.364711,6.893886,9.65788,7.077572,"EFS_L5"
"97","PAKACY",7.265083,7.702304,6.93578,8.115588,6.522806,6.620537,9.302231,8.549951,8.598864,7.876648,8.216478,9.179336,7.493872,6.833199,8.674296,7.703511,8.428733,7.910929,7.922077,7.445687,7.056992,7.39979,7.059581,8.32806,7.328435,7.338506,7.474412,6.864921,6.905723,7.050074,6.575743,10.284261,5.81018,10.975028,9.13698,8.450723,9.584566,11.261789,9.640193,9.683631,6.498406,9.667378,9.558261,8.333282,8.629632,9.267424,10.265103,10.91797,8.904618,8.252751,8.423497,10.908171,9.619582,8.966053,8.184273,9.655883,9.413775,9.76322,10.675422,7.274536,6.833022,9.935193,9.658137,9.672736,10.510211,10.819101,10.010793,8.724582,6.09548,10.014672,10.935472,9.252898,10.452938,9.521766,10.936461,8.904595,10.339728,8.619322,10.952212,9.603493,10.279126,8.662491,9.883054,8.958271,10.767162,7.910832,9.877526,5.075925,11.124373,10.958643,10.641528,9.602003,9.941147,8.930256,9.060654,10.625164,7.508573,7.780827,8.340068,6.193984,9.803111,6.920949,6.7778,7.480812,7.804707,7.55945,7.034953,"EFS_L5"
"98","PAKADI",6.09207,7.001331,6.824726,7.56313,6.911828,5.833453,8.288224,7.343462,8.626132,7.08185,8.206786,7.801431,7.29391,6.012225,7.693285,7.6522,8.024627,7.937711,8.186143,6.705032,6.939525,6.598402,6.780451,8.17929,6.953334,7.318425,7.396497,6.868051,6.229317,6.80273,6.964388,9.460762,5.476518,9.817591,8.849629,8.145742,8.884575,10.742048,8.808312,9.581996,5.029828,8.95539,8.118773,7.875892,8.156398,9.798001,9.101701,10.399314,7.57488,7.468838,7.352854,9.628109,9.023291,7.688409,6.834987,9.049387,8.734828,9.5364,9.181542,6.04151,6.564913,9.074847,8.723739,8.504608,9.931264,9.973733,9.096966,8.500675,5.614512,9.217702,10.091907,8.567452,9.373902,8.476856,10.287271,7.671823,9.873593,7.854111,9.999799,8.77837,9.470319,7.092864,9.282198,8.206298,9.403287,8.749941,8.849296,4.958981,9.686214,9.56435,10.037872,8.964847,9.212695,7.599977,8.3743,9.713663,7.482067,7.197828,7.244337,6.975337,9.320315,7.040026,5.416862,7.124811,7.51789,7.12971,6.736939,"EFS_L5"
"99","PAKAFK",6.416202,8.022467,7.301072,7.430693,7.066417,6.334115,8.823593,7.486454,8.837109,7.405758,8.596763,8.411368,7.933398,6.252046,7.217208,8.004342,8.251897,7.881757,8.133454,6.771841,7.800295,6.621849,7.557866,8.510982,7.100461,7.792255,7.374447,7.28253,6.559602,7.058083,6.974113,9.789728,5.565108,10.354448,8.997522,8.398362,8.841835,11.053395,9.171369,9.437839,4.540395,9.360789,8.427938,8.130762,8.238682,9.599596,8.872445,10.429781,7.651542,7.537964,8.147788,9.583099,9.192081,7.80038,7.217593,9.046686,8.356738,9.567485,9.133316,6.078234,6.309522,9.259548,8.153451,8.802636,9.98248,10.306304,9.82239,8.695588,5.797106,9.713232,10.224344,8.841315,9.619468,8.244744,9.988071,8.435893,10.257413,8.329345,9.742376,9.085295,9.719984,7.796325,9.162624,8.690507,10.34105,8.32869,9.105345,5.211647,10.856174,9.588971,10.094539,9.007217,9.74534,8.199453,8.62205,9.218199,7.342641,6.877354,7.857486,7.001167,10.047556,6.68543,6.737688,7.472871,7.30094,7.32072,6.832455,"EFS_G5"
"100","PAKANZ",6.553163,7.702089,7.322495,7.833831,6.726121,6.877276,8.726149,6.967152,8.642345,7.630385,8.784007,8.164958,7.952567,6.244661,7.751195,7.409672,8.027262,7.587541,8.053494,6.320673,7.590381,6.216359,7.155827,8.621732,6.811365,8.025434,7.72968,7.039487,6.84798,6.301494,6.642084,8.915838,5.718005,9.459219,7.986294,8.065731,8.203423,10.083217,8.341284,8.776169,4.421594,8.826704,8.011121,8.070557,7.99391,9.049554,8.759625,9.729524,7.183468,7.090792,7.758642,9.319997,8.713106,7.740677,6.930015,9.207964,8.302655,9.400497,9.027629,6.733603,6.889562,9.37662,8.527362,8.387274,9.441832,10.124777,9.412322,8.355684,6.315038,9.003956,9.68435,7.990189,8.829709,8.011003,9.894337,7.817415,9.818275,7.850348,9.470609,8.758968,9.312165,8.092846,8.164706,8.106483,10.078722,8.419591,9.181142,5.695978,9.367209,9.095365,9.387313,8.206715,9.172792,8.370569,8.318064,9.57614,7.276467,7.04286,7.368084,7.110254,9.838045,7.074326,7.099124,7.362405,6.900908,7.03624,6.677229,"EFS_L5"
"101","PAKDHL",7.003331,7.417544,7.109976,7.653799,7.11421,6.733544,8.441619,7.435723,8.535583,7.796471,8.160845,8.245497,8.0071,6.394859,8.239818,8.319375,8.16013,7.349556,7.95709,6.519611,7.3455,6.344952,6.87854,8.244778,7.184414,7.569013,7.374183,7.349436,6.443973,6.648919,6.635033,9.796003,5.513147,9.674398,8.406745,8.022504,8.591061,10.198377,8.536784,10.027048,5.078776,9.423321,8.587835,8.056401,8.170347,9.312796,9.227287,10.261647,7.611819,7.598836,7.881734,9.174352,9.293639,7.611092,7.235082,9.159647,8.86398,9.766337,9.187398,6.533995,6.493998,9.350285,8.684162,8.397682,10.043416,9.816193,9.05346,8.167673,5.600946,9.479329,9.897514,8.436204,8.826828,8.141689,9.415963,8.075611,9.534956,8.123728,10.055838,8.497397,9.179042,7.698665,9.076163,8.315817,9.198173,8.838481,9.457502,4.633668,10.323282,9.777085,9.773356,8.450009,8.937471,8.426852,8.148986,9.70469,7.192345,7.114973,7.882243,6.693228,10.016229,7.40014,6.770566,7.768899,7.421401,7.10331,7.373598,"EFS_L5"
"102","PAKGCI",6.864259,7.656176,7.166223,7.427244,6.794114,6.277399,8.376058,7.688511,8.338673,6.810556,8.627931,8.462281,7.458372,6.308234,8.148367,7.503664,8.604454,7.835296,7.775348,6.868886,6.920612,6.721214,6.784801,8.247823,6.807616,7.466898,7.559891,7.680093,6.149261,6.985367,6.359254,9.833642,5.931502,10.128786,8.794991,8.232196,9.244606,10.900878,9.029474,9.630573,5.112646,9.547357,9.233667,8.253967,8.4585,9.134193,9.265972,10.810222,7.519998,7.888626,8.233313,9.692873,9.306386,8.014384,6.900839,9.199777,8.767577,9.180857,9.907339,6.278974,7.081989,9.49174,9.311899,8.600898,10.103188,10.915561,9.643557,8.988372,5.606955,9.887255,10.430284,8.941066,9.882865,8.887889,10.262644,8.279849,10.151782,8.48165,10.20464,9.338362,9.55474,8.100204,9.282934,8.581536,10.116668,7.768952,9.061214,5.30516,10.719074,9.807938,10.479423,9.103902,9.293631,8.131696,8.803586,9.779257,7.354873,7.3173,7.260532,6.088392,10.007411,6.948291,6.244956,6.601021,7.195427,6.59571,7.30207,"EFS_G5"
"103","PAKGKH",6.800611,7.965456,7.707659,8.052569,7.533992,6.190372,8.639272,8.569177,9.034156,7.429786,8.479278,9.049238,8.406539,6.438307,7.47224,7.771878,9.439915,8.183631,8.064463,7.473381,7.978565,7.209234,7.57616,9.165685,7.566206,7.669235,8.200944,7.50393,6.957013,7.517021,6.343269,9.848229,6.60783,10.297617,9.206098,8.470943,8.826974,10.90285,9.323911,9.067195,4.608837,9.511484,9.10301,8.680382,8.85837,9.662948,9.220625,10.562377,7.652356,7.331079,7.504142,10.280066,9.359436,8.910981,6.975197,9.640441,8.985253,10.069045,9.62137,7.278741,7.128772,8.88403,8.685627,8.901096,10.267618,10.807694,9.965189,9.205157,6.237832,9.904584,10.76513,8.551428,9.444371,9.324272,10.768427,8.322835,10.236126,8.303158,9.997786,9.689345,10.015084,8.031155,8.230545,8.383386,9.693063,8.950483,9.40452,5.907541,9.931631,9.960949,10.323457,9.714295,9.624609,8.279683,8.808974,9.203265,7.771826,7.693874,7.975452,7.106519,10.346333,7.521252,6.438864,7.697953,7.451856,7.77065,7.643162,"EFS_L5"
"104","PAKGMY",6.253926,7.60583,7.517573,8.005754,6.659864,6.447039,8.502215,8.661761,8.792896,6.860378,8.847487,8.841527,7.581234,6.200892,8.201677,7.375556,8.496608,8.290311,7.729082,6.547402,7.278453,6.532796,7.340809,8.725518,7.730439,7.569215,7.729377,7.72408,6.337272,7.178356,6.616326,10.052275,5.996237,10.267761,9.040271,8.382097,8.596902,10.830649,9.331088,9.09826,5.165427,9.317411,8.587933,7.876395,8.292224,9.514069,9.841671,10.643139,7.531809,7.839928,7.497169,10.263299,9.255628,8.628511,7.149135,9.317626,8.686331,9.49675,9.921121,6.668106,6.919535,9.398944,8.528692,8.820203,10.621995,10.456045,10.101609,8.454699,5.662523,9.868211,10.491873,8.476802,9.852109,8.711907,10.84523,7.836194,10.153597,8.688781,9.939734,8.953062,9.925975,8.614737,8.900388,8.331289,10.599553,8.60369,9.157788,4.810051,10.724633,8.958195,10.18837,10.001202,9.917177,8.216215,8.667912,9.796433,7.650803,7.969553,7.439773,6.472478,10.826647,6.910302,6.122898,6.459368,7.088858,7.04319,7.37617,"EFS_L5"
"105","PAKHAV",6.734417,7.804787,7.959822,7.794944,7.567729,6.154735,8.304508,8.51295,8.901704,7.268429,8.355281,8.852766,7.899176,6.288934,7.711232,7.653048,9.26917,8.478434,8.141588,7.007453,7.732492,7.017689,7.587098,9.001192,7.350089,7.989728,8.183582,7.844513,6.425878,7.473287,6.260785,9.838213,6.413257,10.321414,9.213257,8.221634,8.381397,10.752329,9.244259,8.927866,4.832055,9.682863,8.943487,8.083166,8.139851,9.530851,9.744239,10.53287,7.164056,7.441124,6.849223,10.294031,9.069266,8.81613,6.644272,9.594347,8.953681,9.626843,9.480475,6.96172,7.092819,9.19776,8.330555,8.669447,9.90105,11.086818,10.11558,9.191856,5.656397,9.714501,10.641653,8.521895,8.975572,8.732665,10.556796,7.91819,10.22696,7.909946,9.883099,9.768242,10.033504,8.145633,9.398276,7.924296,9.921352,8.499583,9.167523,5.859704,10.066633,9.767632,10.204915,9.761066,9.006612,7.81217,9.039607,9.948182,7.736253,7.589812,7.631119,6.615008,10.03043,7.502053,7.212153,6.931315,7.441092,7.91755,7.143594,"EFS_L5"
"106","PAKINP",6.736377,7.716586,7.187874,7.301616,7.100278,6.227104,8.060372,7.616553,8.557208,7.536248,8.120123,7.901101,7.673713,6.122423,7.726424,7.841816,8.299425,7.916104,7.98798,6.78255,7.062358,6.712515,7.028822,8.322833,7.183745,7.627762,7.962114,7.004059,6.323367,7.14896,6.446726,9.17935,5.55732,9.576663,8.328309,8.125682,8.410394,9.941314,8.684468,9.212747,4.448681,9.273022,8.277673,8.093795,7.984375,9.115767,8.780267,9.902683,7.593154,7.490758,7.812578,9.379559,8.95964,7.832911,6.390305,8.891941,8.736504,9.699003,8.874397,5.317214,6.715852,8.79742,8.441018,8.301133,9.985537,9.840857,9.305406,8.200883,5.943597,9.166389,9.82781,8.393913,8.67629,8.573778,9.807293,7.760296,9.440612,8.118204,9.529916,8.551154,9.142298,7.695298,9.359972,8.039557,9.78371,8.222841,8.821326,5.691551,9.997826,9.34143,10.075915,8.442193,8.847639,7.776455,8.087788,9.485594,7.621462,7.258532,7.39456,6.652769,9.685064,6.753591,6.4695,7.23757,7.2295,6.53064,7.296787,"EFS_G5"
"107","PAKJBA",6.860283,8.626358,7.776901,8.756424,7.28351,7.087965,8.745393,8.651323,8.729152,8.233077,8.327678,9.423054,7.948965,6.795882,8.110184,8.403439,9.344411,8.40186,8.080761,7.043407,8.235493,7.344386,7.390862,8.940827,7.965147,8.10075,8.52842,7.809713,7.496696,7.531879,6.559763,10.37889,6.209645,10.329547,9.220777,8.759277,8.960954,10.915956,9.725048,9.756746,5.313455,10.171216,9.332215,8.644486,8.981042,9.608803,9.798497,10.976868,7.786726,7.828009,8.488598,10.33742,9.445648,8.577307,7.719862,9.806293,9.410259,9.565702,10.723504,7.564437,6.882618,9.436033,8.788243,8.975622,10.768318,11.564088,10.659885,9.020838,5.980003,10.150502,11.393383,9.095785,9.873119,8.805238,10.741813,8.462495,10.647071,8.795039,10.250126,10.096826,9.910542,8.679404,9.36544,8.825704,10.434547,8.417138,9.870873,6.407689,10.518165,10.452192,10.788726,10.198985,9.66234,8.729279,9.022873,10.398935,7.888478,7.299569,8.24934,7.306073,10.031331,8.158311,7.918211,8.154906,7.882915,8.01691,7.42521,"EFS_G5"
"108","PAKSWB",6.925935,7.585823,7.320669,7.599958,6.91869,6.578254,8.105633,7.84354,8.412115,7.234009,7.897361,8.181749,7.261238,6.106847,7.837931,8.385765,8.202055,7.955536,7.88938,7.051905,7.069024,6.604886,7.132403,7.975995,7.012245,7.796335,7.725357,7.091705,6.603069,6.926823,6.514346,9.241131,5.509342,9.708459,8.098398,7.957614,8.599622,9.997291,8.672663,9.035824,4.089334,8.970917,8.262674,7.735619,7.888693,8.836645,8.82225,9.793875,7.214242,7.294541,7.498611,9.284293,8.693553,7.86881,6.771028,8.777606,8.675057,9.204585,9.000356,5.840317,6.492445,9.068902,8.415843,8.128625,10.006673,10.058112,9.025537,8.533516,5.976004,9.296942,9.885464,8.522356,8.570089,8.665561,9.778573,7.806443,9.720213,8.013999,9.632762,8.604368,9.453316,7.482376,9.378996,8.121359,9.524587,8.233704,8.906241,5.536093,10.077931,9.111232,9.702169,8.556029,8.974906,7.84697,7.978458,9.243468,7.266836,7.151763,7.766285,6.776019,9.613107,7.041602,7.072395,6.720996,7.513849,7.41483,7.240199,"EFS_G5"
"109","PAKUXT",6.668323,7.889418,7.407695,7.785439,6.869834,6.399283,8.90175,7.919629,8.533399,7.50812,8.330651,8.174637,7.771339,6.133048,7.537369,7.75598,8.74428,7.808776,8.100308,7.204083,7.307222,6.717034,7.370474,9.096252,7.171803,7.555446,7.913665,7.121888,6.471988,7.167127,6.976354,9.646697,5.701782,9.803318,8.463296,8.018458,8.504126,10.006308,8.661188,9.199944,5.416083,9.399922,8.485074,8.094353,8.520886,9.348573,9.077832,9.978736,7.707015,7.584886,7.75845,9.658773,9.334052,8.02251,7.124038,9.192883,8.633487,9.59111,9.304302,5.816155,6.78278,8.897212,8.598028,8.551425,9.894983,10.380201,9.228036,8.678699,5.752608,9.276321,9.944398,8.377356,9.059313,8.395631,10.021264,7.988993,9.754314,8.179715,9.339457,8.80062,9.525983,7.776923,9.147798,8.379249,9.685853,8.281974,9.050506,5.373472,9.544815,9.428282,9.886929,8.946597,9.129057,8.521825,8.205473,9.40775,7.591712,7.101263,7.763937,6.954441,10.121472,7.331143,6.65225,7.208125,7.400338,7.77366,7.169067,"EFS_L5"
"110","PAKWCJ",6.442405,7.62552,7.217525,7.149828,6.551802,5.833311,8.119747,7.862173,8.543277,6.685893,8.335618,8.04317,7.460198,5.951844,7.365967,7.278225,7.957973,7.897889,7.609973,6.30529,7.265062,6.561025,7.103038,8.192857,7.013537,7.641162,7.67076,7.16683,6.506219,6.650121,6.483823,9.316062,5.500062,9.962354,8.522608,7.982917,8.210166,10.236214,8.617323,8.833207,4.822084,8.876224,8.152381,7.842669,7.981087,9.296868,8.665019,10.109253,7.294142,7.548563,7.405014,9.278737,8.890613,7.805419,6.458825,8.647721,8.651119,8.67403,8.828872,6.178903,6.944848,8.821978,8.167349,8.492586,9.848491,9.820874,9.268903,8.506723,5.074832,9.188781,9.684201,8.334179,8.765005,8.41656,9.987112,7.769557,9.751251,8.166376,9.658901,8.438466,9.364584,7.759707,8.954272,7.869934,9.482318,7.921323,8.801321,5.356553,10.338795,8.940244,10.005864,8.675794,9.130525,7.983505,8.228145,8.817422,7.16201,7.315544,7.049106,6.673721,9.566806,6.761984,5.803312,6.373181,6.936761,6.2773,7.128824,"EFS_G5"
"111","PAKXDZ",7.504557,8.649532,7.455658,8.609301,7.011906,6.91106,9.079968,8.491657,8.926012,7.714881,9.041433,9.7302,8.091569,6.904677,8.198073,7.934454,8.614339,8.281358,8.353945,8.381703,7.855257,7.952413,7.491998,9.300108,7.959322,7.995915,8.093468,7.869534,6.865377,7.256025,7.184957,10.195909,6.16841,10.977593,9.825188,9.417053,9.669138,11.717886,9.986887,10.256031,5.849724,10.467378,9.941727,9.205069,9.474914,10.072192,10.119435,11.147208,8.937701,8.188056,8.902586,10.947221,9.613647,9.48694,8.642163,10.040751,9.519895,10.719267,11.341654,7.39384,7.138308,10.061083,10.470008,9.766272,10.495211,11.565942,10.61772,9.390335,6.249436,10.555467,11.56121,9.592435,11.024755,10.03144,11.107862,9.058078,10.746779,9.021828,10.879599,10.378984,10.784407,9.108226,9.961162,8.97902,10.902982,9.088987,10.034488,6.039589,11.13278,10.949316,11.128731,10.793754,10.19642,8.946427,9.747303,10.35438,7.904488,7.669593,8.169871,6.852159,10.436753,7.600669,6.666251,8.053836,8.018294,8.45844,7.572478,"EFS_L5"
"112","PAKYZS",6.170986,7.439296,7.279171,7.567414,6.995359,6.001369,7.784792,7.36134,8.831038,6.806346,7.97713,8.117442,7.634638,6.167472,7.230167,6.938033,8.284857,7.640835,7.953136,6.081853,6.638748,6.120514,6.975495,8.287997,6.870866,7.110042,7.296705,6.963314,5.748258,6.953453,6.549942,8.805079,5.982555,9.608919,8.1814,7.914868,7.729621,10.019858,8.404889,8.038635,4.455906,8.560384,7.639371,7.647077,7.8828,8.710864,8.759621,9.998912,6.751724,7.162247,6.895816,8.992915,8.464269,7.764326,6.469419,9.041786,8.230555,8.763275,8.128325,6.143291,7.030047,8.589462,7.310162,7.996086,9.298105,8.855584,8.869253,7.973692,5.167996,8.305638,9.439795,7.696471,7.592357,7.973602,9.742546,6.946387,9.327973,7.73252,9.277911,7.611741,8.819705,7.164925,8.334004,7.599319,9.219882,8.096791,8.3336,4.501186,9.234196,8.562725,9.362265,7.595961,8.38842,7.448592,8.273507,8.323993,7.445695,7.234583,6.981872,6.358471,9.462121,6.578382,5.688817,6.417208,6.602137,6.66604,6.840756,"EFS_L5"
"113","PALAWZ",7.545894,9.854356,7.672383,8.436004,7.516284,6.32024,8.19447,8.422,9.06843,7.403544,8.784667,8.931091,8.314658,6.659956,8.300488,8.432004,8.662471,8.339779,7.881758,7.056573,8.862828,6.9573,7.809905,8.813455,7.29713,8.075182,8.448943,7.776166,7.320205,7.357885,7.56373,10.322823,6.13249,10.919349,9.371072,8.907559,9.445148,10.983353,9.544877,10.203196,5.18366,10.051961,9.643431,9.030906,9.193006,9.704398,10.034018,11.098731,7.976585,8.219081,8.446846,10.602403,9.693359,8.673211,8.233212,10.1736,9.22661,10.391293,10.463206,6.297925,7.011908,9.597228,9.397343,9.498636,10.156688,11.182516,10.310706,9.205408,5.68542,10.023124,10.900868,8.989946,10.421687,9.495339,10.550691,8.710799,10.54349,9.156639,10.595458,9.690676,10.352304,9.000298,9.549636,8.639679,10.539052,9.204915,10.165713,6.176159,11.100093,10.126611,10.666612,10.068216,10.031272,8.948556,9.115827,9.829637,7.766035,7.271328,7.954523,7.18439,10.24222,7.208046,6.404998,7.6932,7.959086,7.28714,7.722186,"EFS_L5"
"114","PALBFV",7.490047,9.02116,7.998729,9.147928,7.058252,7.229046,9.512008,9.123321,8.911097,8.199478,8.893519,9.417488,8.394191,6.879858,8.700703,9.06383,9.206398,8.070305,8.677636,7.946322,8.886729,7.86382,7.686437,9.14592,7.870106,8.198741,8.290455,8.030988,7.408579,7.61077,7.765938,9.871618,6.021032,10.513497,9.651139,8.970852,9.271867,10.984609,9.565858,9.902187,6.492665,9.666792,9.434707,8.87475,9.064671,9.712841,10.028403,10.795928,8.372968,8.53617,8.622639,10.242827,9.688698,8.173556,7.931472,9.8785,9.089748,9.58256,10.441614,6.705112,6.861571,9.3053,9.185022,9.368519,10.580329,11.012768,10.0718,8.684673,6.544044,9.963662,10.928206,8.738023,10.132334,8.968087,10.1793,8.67763,10.648143,8.812002,10.010795,9.627783,10.111442,8.619674,9.779741,8.832816,10.65966,8.591671,9.928952,6.144814,11.079559,10.350829,11.049803,9.737334,10.482393,8.949696,8.768484,10.172673,8.052666,7.846814,8.709962,7.685024,10.613884,7.804089,8.268312,8.110568,8.092555,8.16141,7.53548,"EFS_L5"
"115","PALBFW",6.713882,8.008472,7.197607,7.655334,7.070991,6.528989,8.214932,7.703645,8.686673,7.472528,8.554677,8.06385,7.948978,6.090212,7.219358,8.218562,8.158658,7.637584,8.249001,6.58985,7.581051,6.618184,7.015136,8.377713,7.403962,7.519517,7.540463,7.08858,6.50179,6.879734,6.789839,9.073763,5.788547,9.697804,8.40878,8.128789,8.734174,10.100507,8.414814,9.160709,4.466893,8.907115,8.810859,7.690529,8.332735,9.316871,8.459151,10.084957,7.150175,7.253324,7.443842,9.409083,8.957226,7.99394,6.704182,9.576257,8.485764,9.326517,8.84099,6.008673,6.765948,9.137274,8.469024,8.457005,9.985821,9.887231,9.198283,8.343292,5.722524,9.105244,9.993516,8.523725,8.887753,8.466203,9.443933,7.815044,10.014505,7.94112,9.513803,8.698091,9.314966,7.700576,9.093558,7.957916,9.486647,8.227153,9.036384,5.523464,9.804711,9.472014,9.981313,8.645187,9.100665,7.776116,8.1417,8.874924,7.287559,7.057626,7.300709,6.973822,10.258424,7.204547,6.181811,7.283499,7.18401,6.99835,6.972964,"EFS_L5"
"116","PALEAC",6.481901,7.267011,7.163004,7.303654,6.917319,6.190826,8.181705,7.680719,8.308381,7.136796,7.859935,8.242248,7.643021,6.040415,7.810329,7.851581,8.132592,7.656474,7.772545,6.340778,7.451552,6.52262,6.993134,8.151108,6.968555,7.591798,7.537025,6.953738,6.406688,6.893921,6.442242,8.981099,5.78863,9.828274,8.339832,7.819403,8.327484,10.07149,8.39437,8.985827,4.518413,9.034783,8.481553,7.935886,7.777675,9.082125,8.994137,10.010476,7.595274,7.353576,7.378199,9.229377,8.786252,7.971324,6.461749,9.165482,8.559688,9.048275,9.002486,6.103658,6.550355,9.315891,8.129939,8.315154,9.736163,10.203013,9.175955,8.379247,5.500175,9.102486,9.660696,8.27795,8.498723,8.169996,9.877831,7.783791,9.675779,8.101094,9.504927,8.582873,9.311174,7.377754,9.142416,7.881736,9.600757,8.89633,8.899165,5.359264,10.067974,9.182463,9.820474,8.725027,9.316749,7.865086,7.995709,9.506111,7.146693,7.263091,7.268171,6.574563,9.56866,6.850786,6.651139,7.152331,7.247366,6.97367,6.8742,"EFS_G5"
"117","PALEBK",7.000182,7.590484,7.095643,7.332197,6.619468,5.979648,8.561369,8.135492,8.467664,7.452976,7.682676,8.225958,7.731366,5.846605,7.803611,7.935487,8.559667,7.587755,7.523869,6.506898,7.352421,6.722919,7.14627,8.17882,7.01502,7.390972,7.953576,7.271711,6.027739,6.849284,6.736585,9.484703,5.428698,9.977701,8.604174,8.046305,8.636969,10.179466,8.694116,9.280132,4.537064,9.208888,8.523293,8.111215,7.866454,9.268464,8.971166,10.3866,7.553929,7.375879,7.941724,9.361884,8.904998,7.671804,6.595919,8.447101,8.717786,9.206715,8.965426,5.88686,6.576239,9.101284,8.690613,8.605065,10.202808,9.916165,9.307237,8.095166,5.453178,9.420166,10.017408,8.566971,8.917404,8.517106,10.003259,8.087057,9.783948,8.297064,9.883947,8.775309,9.457951,7.856577,9.395344,8.35425,9.642682,8.211399,8.869786,5.440743,10.34288,9.464285,9.850765,8.658266,9.438853,7.918031,8.394943,9.367561,7.414718,7.183105,7.91157,6.685945,9.22743,6.880343,6.449414,7.303402,7.325361,6.52043,7.085539,"EFS_G5"
"118","PALETP",6.75091,7.076238,7.389086,7.915393,7.018385,6.272855,8.361015,7.8331,8.506816,7.540206,8.424765,8.315851,8.132727,6.705998,7.558056,7.641616,9.067042,7.939131,8.256045,6.565728,7.759316,7.13413,7.052702,8.412557,7.187664,7.657533,7.034793,7.034696,6.363917,6.79492,6.795879,9.245935,5.811015,9.823836,8.130414,8.106781,8.18084,10.538158,8.911549,8.740926,4.950345,9.003393,8.130078,8.076979,8.440935,9.665395,8.850682,10.206865,7.330443,7.528162,7.422013,9.813499,9.13253,7.885719,7.112022,9.214521,8.653279,9.22362,8.424135,6.67489,6.674064,9.038489,7.962384,8.352268,9.80625,10.145679,9.341176,8.012415,5.683186,9.112207,9.790405,8.396131,9.447167,8.800639,10.18801,7.929218,9.820312,8.09494,9.563997,8.389049,9.361269,7.756636,9.233793,7.698941,9.61818,8.023769,8.764332,4.761621,9.55474,8.847747,10.362091,8.848563,9.270788,8.199004,8.488771,9.150818,7.316819,7.253334,7.649548,6.809147,9.881301,6.957782,6.597924,7.575566,7.124288,7.1147,7.227623,"EFS_L5"
"119","PALFRE",6.858533,7.688755,7.595702,7.452076,6.903325,6.240301,8.238345,7.679393,8.845375,6.996102,8.390641,8.636725,7.242388,6.275591,7.58151,7.32554,8.01675,8.190275,7.80286,6.926471,7.569707,6.978563,7.274504,9.143525,7.354844,7.585056,7.38579,7.316442,6.582286,7.422112,6.411086,10.311142,6.309725,10.678656,9.336913,8.645256,9.040092,11.340451,9.374133,9.698648,4.572951,10.008334,8.868102,8.34386,8.516822,9.539264,9.813597,11.155322,8.052937,7.783793,7.967804,10.406361,9.388414,9.095287,7.274577,10.012531,8.556023,9.535928,10.870762,6.399099,7.230408,9.412166,9.883168,8.972625,9.990143,10.598454,10.425503,9.488486,5.76507,10.146193,10.948288,9.029147,9.64197,8.992379,10.725867,8.267268,10.480223,8.630721,10.43933,10.264371,10.088386,7.973808,8.97246,8.642356,10.503953,8.909518,9.750838,5.711365,10.405314,10.160526,10.562698,9.561723,9.378274,8.154695,9.07729,9.837547,7.61052,7.511828,7.43212,6.78849,9.682396,6.792401,6.488477,7.103295,6.78708,8.01009,7.398036,"EFS_L5"
"120","PALFSE",7.144539,8.1824,7.478846,7.77594,7.558167,6.343,8.320832,7.797521,8.694555,7.33423,7.964447,8.753548,8.035653,6.366962,8.270805,7.89125,8.989609,8.14594,8.123746,7.457926,7.978414,7.37367,7.243803,8.910048,7.58415,7.61645,7.658013,7.520616,7.222991,7.052361,7.045045,10.106155,5.701508,10.326021,9.023157,8.458253,9.628706,10.40383,8.978239,10.55727,5.419554,10.154211,9.638914,8.622929,8.450938,9.12309,10.043795,10.785433,8.344111,7.594793,7.688327,10.417393,9.046203,8.457351,7.791088,10.42766,9.333546,10.14261,10.426716,6.5487,6.68979,10.112601,9.849022,9.016372,10.227756,10.694402,9.993054,9.177295,6.159544,9.925125,10.648333,9.335311,10.342443,9.401492,10.385419,8.44581,9.989332,8.472973,10.453761,9.274791,9.93064,8.173088,9.829816,8.634615,10.928512,8.523112,10.369004,6.140715,10.547121,10.579676,10.270444,9.435006,9.626349,8.115142,8.994234,10.389753,7.362463,7.375013,7.582609,7.349028,10.263173,7.836908,6.997195,8.052344,7.741529,7.43759,7.380453,"EFS_G5"
"121","PALGFF",6.991634,7.757022,7.195109,7.164464,7.021589,5.591704,8.283932,7.506863,8.547045,6.774993,8.403824,8.209176,7.406235,6.285397,7.545443,7.446407,7.818971,8.087248,7.349459,7.222981,7.193656,6.647141,6.993293,9.010928,6.842288,7.433303,7.524801,7.128171,6.684637,7.12988,6.326799,9.569188,6.096545,10.136181,8.825914,8.091899,9.020763,10.753632,8.878354,9.62126,4.38298,9.669671,8.34281,7.962079,7.836783,8.855811,9.201153,10.304383,8.026826,7.197413,7.677902,9.824996,8.539493,8.216326,6.846943,9.081574,8.829714,9.481145,9.695164,6.370037,7.006678,9.051847,9.233017,8.513245,9.670528,10.378149,9.454655,8.727026,5.851784,9.830935,10.425127,8.834696,9.025302,8.750648,10.222053,8.018839,9.89738,8.258397,10.219055,9.362938,9.666882,7.60052,9.10864,8.326254,9.901257,7.649716,8.955683,5.373245,10.274386,9.495457,10.326758,9.290453,9.437757,7.849609,8.580264,9.616395,7.591734,7.354522,7.368454,6.830727,9.984025,7.029279,6.333013,6.769059,7.134484,7.43746,7.390546,"EFS_L5"
"122","PALHVD",6.416707,7.54543,7.371332,8.018064,6.879531,5.964168,8.572238,7.866398,8.498868,7.18365,8.302966,8.573442,8.30482,6.18662,7.961342,7.732688,8.455042,7.692212,8.150642,6.614676,7.463673,6.448058,7.114857,8.210552,6.870333,7.626869,7.746656,6.996967,6.645499,7.003458,6.277051,9.279386,5.438255,9.665598,8.673324,8.022174,8.233967,10.450708,8.726472,8.508021,5.044956,9.028414,8.19661,7.979542,8.444379,9.272084,8.81683,10.31685,7.149574,7.730756,7.581921,9.418403,9.11533,8.156594,6.872898,8.388234,8.698002,9.366017,9.030327,6.95211,6.750785,8.935913,8.027327,8.447057,9.622494,10.277176,9.362432,8.61785,5.318611,9.247959,9.809045,8.398892,8.69669,8.159681,10.067284,7.853715,9.913201,8.202335,9.693601,8.756778,9.422275,7.772134,8.726043,8.017508,9.202538,7.752197,8.765042,4.829787,9.590915,9.128286,9.696456,8.866114,9.191609,8.237031,8.334254,9.027346,7.417608,7.303897,7.512731,6.352522,9.867662,6.961752,6.122736,6.919218,6.86396,7.12289,7.424879,"EFS_L5"
