"","Row.names","AGPAT2","AIMP2","ALG3","ANXA11","APEX1","ATIC","BYSL","CAD","CCDC85B","CCNE1","CDC123","CDC25B","CDC37","CDK4","CHAF1A","CLTA","DDX10","DDX11","EIF2B2","EIF3B","EIF3E","EMG1","FARSA","FASN","FDFT1","FGFR3","FKBP4","GAL","GCSH","GTF3C2","HCFC1","HSP90B1","HSPA1B","LMNB2","MCM2","MRPS12","MTHFD1","NOLC1","NOS2","NSDHL","NUP188","NUP214","PDCD11","PKN1","PMPCA","POLD1","POLG","POLRMT","PPAT","PWP2","RABEPK","RCC1","RRP1B","SAFB","SCRIB","SF3B2","SLC19A1","SLC1A5","SLC6A8","SLC7A5","SMARCA4","SNRPA1","SSRP1","STC1","TAF1C","TCOF1","TRAP1","U2AF1","UBL4A","EFS_fct"
"1","PAAPFA",7.041652,7.422265,7.882975,7.88446,8.721125,8.262774,6.73648,7.892741,7.91399,5.767921,8.026219,8.834874,8.027001,9.448853,7.534087,8.45657,7.070335,7.909056,8.713239,8.788658,9.372382,6.363886,9.068592,9.626845,8.748228,6.984408,9.056385,8.993137,6.748964,8.281369,8.79007,10.882788,11.465233,8.162882,8.294507,6.38176,8.084642,8.345865,5.368488,7.323458,8.633367,8.349829,8.00199,8.922076,7.812377,7.301996,7.603401,7.895453,7.271394,7.165204,5.596366,7.095884,8.089613,8.023505,7.662379,9.153036,7.392292,7.702084,7.70046,8.40768,9.047554,8.541665,9.050424,8.177777,7.244817,7.424918,8.664339,8.754974,6.880261,"EFS_L5"
"2","PACLJN",7.440793,7.771543,7.796637,8.049565,8.614659,7.498578,6.798715,7.921807,7.864067,6.366759,7.872403,8.331984,8.025307,8.066869,7.167616,9.380194,7.014647,7.444059,8.248509,9.275386,9.861705,5.84372,8.857701,9.451167,8.391755,6.883304,8.10665,7.145578,6.715735,8.468153,9.047143,10.354994,9.35427,8.242893,7.719827,6.34351,7.623002,8.38888,5.62357,7.249326,8.600401,8.646087,7.715769,9.512823,7.660744,7.387792,7.929582,8.286101,6.941707,7.146575,6.080094,6.585308,8.031515,7.899836,7.976732,9.165807,7.550149,7.284754,8.198049,8.392068,8.991651,7.368877,8.185048,6.055555,7.472263,7.676935,8.672324,8.393105,7.385723,"EFS_G5"
"4","PACRYY",7.133524,7.831788,7.621959,7.78865,8.478504,8.06126,6.55349,7.907734,7.686835,6.854348,7.595124,8.651362,7.541031,8.837888,7.668432,8.945186,6.919779,7.771465,8.733737,9.224042,9.824651,6.972399,8.584191,9.229364,8.410104,6.470727,8.581163,7.360902,6.902607,8.648566,8.836106,10.695977,9.44561,8.430033,8.214442,6.346978,8.184968,8.160345,5.248859,7.653786,8.633378,8.602909,7.674327,8.9267,7.584046,7.438632,7.512392,7.91415,7.024052,6.857391,5.885547,6.680618,7.965043,7.568049,7.596109,9.219734,7.340749,7.014558,8.042553,8.462633,9.081726,8.194067,8.65885,5.865244,7.368717,7.327634,8.72459,8.85478,7.312169,"EFS_G5"
"5","PACRZM",7.820911,7.755113,7.671403,7.713212,9.730827,8.37503,7.01844,7.420347,8.191061,6.918752,7.725447,7.817558,8.123764,8.624506,6.90733,8.942274,6.374013,7.273353,8.521663,8.898551,9.957188,5.846136,8.7613,8.63405,8.436629,7.215203,8.672472,8.282483,7.264434,8.062469,8.374442,10.226046,9.090536,8.405351,7.544087,6.518777,7.517487,8.029981,5.681757,7.567382,8.086358,7.833167,7.403676,9.33003,7.525873,7.462757,7.669324,7.975918,7.122922,7.328217,5.96433,6.606074,7.833539,7.740857,7.867381,8.764245,7.584372,6.912395,8.120207,8.095907,8.76771,7.313749,8.142343,5.527923,7.3831,7.469335,8.683448,8.722356,7.511474,"EFS_L5"
"6","PACSNL",6.744849,7.676847,8.386909,7.127177,8.825836,8.761886,6.25221,8.002692,7.572697,7.049473,8.375614,8.054975,8.289021,8.895095,7.360148,8.540487,8.524235,7.800112,8.557381,9.006061,10.183639,7.537177,9.031111,8.708658,8.56356,6.701485,8.652973,7.48679,7.517572,8.434905,8.944376,11.341886,9.778937,8.260511,7.653341,6.89274,7.822336,8.994217,5.07847,7.584621,8.022614,8.308447,8.684478,8.93995,7.385836,7.424187,8.016162,8.008565,8.06293,7.382471,5.949711,6.93138,8.013217,7.888039,7.866115,9.046102,7.458392,7.811308,7.956496,7.973326,8.614684,8.570501,8.852432,7.046708,7.256287,7.65033,8.44396,8.899589,7.083428,"EFS_L5"
"7","PACSSR",7.318859,7.295755,6.861375,7.482563,7.77997,7.395147,6.518575,7.771644,8.149912,6.766512,6.877132,7.501368,8.516001,7.345638,8.282742,7.137244,7.964252,8.471678,6.939636,8.85743,8.769136,6.948355,8.355542,8.454569,7.092929,7.376872,7.999446,8.854624,6.021129,7.53588,7.643983,9.585012,8.811397,8.951318,6.972292,5.770845,6.993297,7.636008,5.666979,6.183343,7.415141,8.033377,7.958336,8.268515,7.225092,7.955502,7.599134,7.768848,6.191011,7.26985,5.935654,7.046054,7.302527,8.908376,7.845339,8.298199,7.523295,6.977483,7.17654,8.06073,9.333987,7.520567,7.892982,5.303747,7.465308,7.817781,8.313221,8.752595,6.715079,"EFS_L5"
"8","PACUGP",6.999569,7.375322,7.8933,7.43742,8.626654,8.294186,6.337115,8.074795,7.767155,6.743557,7.865006,7.79967,7.99712,8.811891,7.818113,8.625549,7.432493,8.064054,8.489267,8.878175,9.666775,6.744402,8.966859,8.582515,8.205363,6.70095,8.251571,7.079786,6.91278,8.560364,8.82842,10.789787,8.596647,8.451221,7.495878,5.996912,7.889986,8.406874,5.269613,7.114735,8.193342,8.408808,7.956076,8.904299,7.548885,7.634776,7.623914,7.70633,6.94249,7.149104,5.733981,7.043224,7.709432,7.690632,7.79565,8.887782,7.634517,7.257171,7.655376,6.729912,8.857486,7.976354,8.447406,5.171481,7.378511,7.413494,8.403424,8.595379,7.004193,"EFS_L5"
"9","PACVNB",7.837486,7.754647,7.61676,7.916263,8.20409,8.054504,6.49753,7.731202,7.970022,7.129517,7.916291,7.58301,7.63486,8.405847,7.137904,9.087067,7.22125,7.634698,7.867317,8.989602,9.125746,6.125617,8.733521,10.160315,8.571829,6.961261,8.532024,6.914516,6.676619,7.955453,8.675015,10.239684,8.51168,8.256829,7.749283,5.993795,7.270555,8.277049,5.485723,7.309904,8.438663,8.36043,7.548843,8.839273,7.736147,7.31442,7.487686,7.683357,7.018417,7.066645,5.996994,6.874483,7.836133,7.60636,7.863727,8.662413,7.538226,7.492761,8.073602,8.49197,8.970867,7.785572,8.139311,5.499842,7.287727,7.175575,8.661505,8.707081,7.281162,"EFS_L5"
"10","PACYGY",7.437335,7.568527,7.538596,7.884314,8.552103,7.364301,6.474055,7.346317,7.973372,5.926901,7.525185,8.4878,7.660194,8.656606,7.326185,8.121921,6.66566,7.764234,7.995918,8.758693,9.626971,6.140321,8.827431,9.173844,8.630427,6.952146,8.146485,8.68684,6.047095,7.683208,8.623534,10.207811,8.833577,8.342611,7.665472,5.980942,7.769668,7.811762,5.289497,6.923138,8.216979,7.966146,7.14901,9.017923,7.468976,7.235127,7.628653,7.66182,6.01623,6.521826,5.404358,6.463464,7.389516,7.648173,7.7686,8.885211,7.369676,7.00147,7.625887,7.668377,8.901526,7.995417,8.350282,6.364131,7.286888,7.15811,8.246547,8.137786,6.677991,"EFS_L5"
"11","PACZPX",6.723601,7.188137,7.4649,7.104964,8.404045,7.70753,6.244305,7.179315,7.796497,6.076354,7.501128,7.393463,7.623854,7.964248,7.541546,7.927129,7.479037,7.674763,7.535641,8.741463,9.577676,6.008769,8.002789,8.257706,7.281122,6.745535,7.643679,8.385859,6.427851,7.484011,7.914751,10.664861,8.89559,7.797908,7.500015,5.240708,7.506362,7.552366,5.327069,6.321807,7.662519,7.829848,7.429474,8.050894,6.953301,7.205594,7.106771,7.374613,6.843608,6.06439,5.453261,6.64721,6.984077,8.074897,7.27386,8.100448,6.940149,6.892404,7.085469,6.872529,8.696387,7.839483,7.753488,5.613108,6.880369,7.38244,7.661006,8.301763,6.021782,"EFS_G5"
"12","PADENF",6.902716,7.569808,7.623738,7.154591,8.559085,7.719075,6.33474,7.3631,7.462923,6.508717,7.446151,7.931087,7.882912,8.347623,7.471866,8.385918,6.936061,7.63381,8.418497,9.160624,9.535176,6.08333,8.63428,9.359676,8.879559,6.544699,8.270877,7.279771,6.286872,8.336513,8.380459,9.893877,9.31328,8.359894,8.268398,6.625008,7.549682,7.726923,5.191885,7.511418,8.441197,8.583132,7.189345,8.781851,7.460049,7.525455,7.012289,7.918287,6.904131,6.8329,5.478492,6.879265,8.130457,8.023901,7.406409,8.272771,7.309453,6.939004,7.591906,7.037295,8.781696,7.802674,7.815482,5.865854,7.097911,7.302425,8.769794,8.763681,6.866233,"EFS_G5"
"13","PADFLI",7.228917,7.945115,8.091525,6.995513,9.725769,8.450848,7.082625,7.987715,8.165337,6.775558,8.282306,7.89055,7.985917,9.192571,8.118554,8.571723,8.360497,7.951735,8.447422,9.144579,10.402894,6.718111,9.173564,9.703303,8.670428,6.896765,9.123711,7.066159,6.802071,8.037396,8.760864,10.874642,8.4436,9.228878,8.549813,7.086443,8.731204,8.887862,5.564443,7.413467,8.765559,7.971072,8.51427,9.191922,7.567314,7.982144,7.816779,8.222568,8.080027,7.363253,6.38303,7.303572,8.688446,8.572004,8.021065,8.803076,7.8258,7.816183,7.749768,8.747866,9.283969,8.09036,8.604583,4.985361,7.217561,7.811749,9.209875,9.494733,7.38131,"EFS_G5"
"14","PADHWC",7.643819,6.94828,7.485848,8.367684,7.977612,7.20717,5.95517,6.902239,8.260795,6.189085,7.456964,7.647864,8.021703,7.566588,6.316009,8.375619,6.918734,7.074422,7.791079,8.643648,8.758984,6.299659,8.350052,8.749414,7.974878,6.50437,7.783022,7.204393,6.440452,7.372511,8.155403,10.363663,9.463787,7.584532,6.011971,5.988708,6.569649,7.725833,5.409861,7.278648,7.898383,8.091518,7.281865,8.875788,7.263762,7.08227,7.464412,7.831319,5.922815,7.178887,5.712115,6.219996,7.040219,7.979145,7.471716,8.34004,7.161432,7.44331,8.208178,8.547278,8.043393,7.586123,7.428941,6.989145,7.140714,7.048243,8.182685,8.579049,6.691408,"EFS_L5"
"15","PADIEY",6.903889,7.625803,7.419611,7.073898,9.110422,7.232664,6.84739,7.175971,7.904713,6.770599,7.481005,8.423609,7.927479,8.598376,7.591441,8.626475,6.883223,8.14425,8.422189,8.775204,8.506451,6.49649,8.645995,8.401183,8.164329,6.80353,8.684082,5.730712,6.143918,7.725618,8.696959,10.055523,11.0328,8.104477,8.307023,6.09802,7.785782,7.768685,5.206142,7.784803,8.310956,8.393413,7.306275,8.668223,7.43073,7.67717,7.59211,7.520385,6.214025,7.027817,5.403299,6.29403,7.660098,8.073551,7.633829,8.752086,7.677004,6.623698,7.77892,7.378561,8.648464,7.587578,8.346013,7.118652,7.627243,7.440747,8.519852,8.989817,6.624454,"EFS_G5"
"16","PADIHC",6.847135,7.829415,8.344948,6.967013,9.316509,8.145177,6.58028,7.4966,7.876297,6.988386,7.728242,8.298804,7.633899,8.589217,6.942885,8.679035,7.590781,8.12623,7.410397,9.181856,9.593922,6.712634,8.43065,8.941186,8.174416,6.823767,8.318557,6.661583,7.156333,8.477724,8.857229,10.34254,9.104094,8.30198,8.492729,6.34406,7.28703,7.9052,5.284923,7.29462,8.887269,8.513271,7.458923,8.356568,7.684768,7.758107,7.624821,8.470637,7.559667,6.887034,5.836849,6.902098,7.41149,7.330184,7.951969,8.287703,7.41614,7.058488,7.606343,7.481196,8.216501,7.736559,8.086811,5.399334,7.78429,7.22739,8.737472,7.736073,6.940993,"EFS_L5"
"17","PADINC",7.330919,7.485538,7.817761,8.370319,8.450785,8.244959,6.27456,7.952107,7.386875,6.827235,7.510945,8.186656,7.785812,8.998566,7.138969,8.396157,7.470294,7.961462,8.137838,9.227627,9.977546,6.415304,8.556923,8.93449,7.587382,6.719942,8.668979,8.448521,6.476305,8.040422,8.595886,10.492224,8.036727,8.027135,7.639851,6.805433,7.635724,7.796502,5.398303,6.852429,8.114614,8.254358,7.466177,8.930562,7.520489,7.358268,7.616991,7.749592,7.480984,7.021395,5.663802,6.6643,8.061379,7.800604,7.392241,8.107581,7.566045,7.518737,7.608274,8.032517,8.733652,7.68516,7.804079,6.183775,7.275449,7.1291,8.384982,8.358148,7.007693,"EFS_L5"
"18","PADIRB",7.061435,8.18207,8.451405,6.958362,9.028336,8.989168,6.891685,8.325659,7.986825,6.917179,8.073462,8.10396,8.196091,9.019305,7.155074,9.02766,7.763971,7.203785,9.054098,9.64221,9.5613,6.618537,9.104847,9.867146,8.005372,6.768441,8.829232,9.33967,7.163361,8.88693,8.854207,10.480359,10.246287,8.340148,8.15507,6.719777,8.095567,8.758063,5.317669,7.650402,8.620463,8.359091,8.274803,9.122124,7.766129,7.676478,7.806235,8.280347,7.592757,7.932412,6.203132,6.881549,8.433096,7.989088,7.832351,8.644961,7.56688,7.470857,8.184358,6.767358,8.579854,7.603346,8.119608,6.433152,7.557233,7.694733,8.837001,8.604108,7.346519,"EFS_L5"
"19","PADKFS",7.728266,7.462255,7.70304,7.982907,8.815301,7.649666,6.04904,7.547429,7.966372,6.53485,7.775591,7.986089,8.011223,8.018211,6.817059,8.69938,6.518986,7.223305,8.334301,8.849402,9.118138,5.659932,8.670476,9.263759,8.977345,6.924125,8.475966,6.924137,6.793591,7.952882,8.412242,10.49778,11.313,8.134448,7.904501,6.400272,7.521546,7.968632,5.051795,7.782121,8.405868,8.275022,7.527799,9.110659,7.605882,7.316026,7.529099,7.806203,6.879391,6.913131,5.968895,6.655604,7.700815,8.011626,7.466646,8.324948,7.146941,7.127076,7.983828,8.67633,8.677496,7.541492,7.912499,6.336576,7.425708,7.373093,8.338436,8.676491,6.961676,"EFS_L5"
"20","PADKFU",7.278693,7.572638,7.507137,8.007066,9.166217,7.748917,5.97495,7.914526,7.675107,5.965013,7.466845,7.910687,7.964095,8.762539,7.571633,8.960499,6.970011,7.816299,8.199612,8.936275,9.443632,6.136075,8.671805,8.764594,8.290575,6.584599,8.210734,7.118771,6.852746,8.345189,8.713624,10.563572,8.631556,8.090794,8.327306,6.177093,8.138125,8.069958,5.182426,7.161734,9.016473,8.760504,7.454073,8.895101,7.744188,7.561279,7.914547,7.830064,6.555476,6.855952,5.427839,6.847397,7.824583,8.071616,7.730917,8.766,7.591575,6.890272,7.492943,7.543056,8.636304,8.43583,8.453929,6.096039,7.821408,7.436096,8.61367,8.323941,6.996,"EFS_G5"
"21","PADKGF",7.918125,7.397453,7.412225,8.660411,9.013734,7.879995,6.590595,7.21512,8.303315,7.190947,8.628031,7.255525,8.536465,9.090518,7.320345,9.225211,7.707666,7.499318,8.550197,8.973809,10.475989,7.065832,8.845526,7.654485,8.980096,6.762038,8.092815,6.263186,6.752805,7.980815,7.452176,11.166056,8.267536,8.124946,7.486121,7.372493,7.956661,7.688847,6.152253,7.452616,7.88619,7.95192,7.502159,9.154436,7.661231,7.36534,7.658293,7.851779,7.11748,7.276751,6.328122,7.029148,7.788786,8.023652,7.262312,8.457347,7.233458,7.596024,7.015801,7.086227,7.997268,8.320287,7.866449,5.853837,7.150902,6.982839,8.483039,8.532457,7.518241,"EFS_G5"
"22","PADKNE",6.985536,7.861565,7.844807,6.978357,9.0439,8.482186,6.75248,7.706444,7.999193,7.145117,8.172207,8.592121,8.05852,9.556943,7.504257,9.12938,7.182657,7.490311,8.686049,9.032008,10.205031,6.385136,8.611971,9.161172,8.492856,6.728497,9.441589,6.308294,7.199869,8.309044,8.555072,10.566816,9.531323,7.947561,8.623791,6.744765,7.823615,8.604776,5.095063,7.685628,8.661254,8.317965,7.643374,9.060005,7.535077,7.676575,7.60995,7.722265,7.582347,7.514922,5.969764,7.116365,8.419866,7.506195,7.750116,8.297502,7.253026,7.240767,7.794415,8.060727,8.851169,7.869426,8.505388,5.048732,7.179372,7.085473,8.960068,8.253303,7.578451,"EFS_L5"
"23","PADKRU",7.840511,7.168972,7.477409,8.038091,8.523537,7.107881,6.219775,7.315194,7.827002,6.162013,6.937587,8.51824,8.006184,7.922921,7.617831,8.353391,6.445885,8.052326,7.591249,8.187894,8.070059,6.096392,8.563877,8.349736,7.718418,6.900015,8.148893,7.14875,6.10619,7.566502,8.57512,10.256806,9.338693,8.049326,7.96397,6.146545,7.401768,7.390231,5.583753,6.971523,8.732996,8.486576,7.361219,8.80967,7.690108,7.539323,7.716213,7.859181,6.22443,6.798543,5.382459,6.836989,7.374055,8.37345,7.719793,8.473972,7.20165,7.069328,7.483429,7.711319,8.532122,7.858052,8.411878,5.759429,7.279376,7.408225,7.943194,8.227136,6.831127,"EFS_L5"
"24","PADKVV",7.441476,7.405583,7.367688,8.638423,8.377936,7.351141,6.13752,7.241742,8.182443,6.404218,7.377747,7.868473,8.25289,7.634134,6.84151,8.501125,6.870706,7.197158,7.777974,8.548839,9.275149,6.375804,8.343542,8.074198,7.747319,6.846145,7.499914,6.960012,5.766006,7.466653,8.424155,10.167548,8.445933,7.804326,7.027108,6.139325,6.907259,7.637505,5.469737,6.938299,7.847177,8.304402,7.540203,8.814624,7.241035,7.189767,7.737333,7.541098,5.584029,7.144434,5.54571,6.690385,7.244959,8.526059,7.483369,8.590047,7.388497,7.136119,7.429424,7.663616,8.386153,7.774759,7.87562,5.284675,7.333712,7.38974,7.998631,8.825624,6.468033,"EFS_L5"
"25","PADKXS",6.927852,7.790995,8.210253,7.794963,9.270604,8.337869,6.57646,8.114163,8.120888,6.303619,7.908388,8.245401,7.806985,12.199135,7.423875,8.612876,7.786084,7.518722,8.262878,9.151387,10.185901,6.714135,8.921959,8.67118,8.818186,6.95201,8.636329,9.829997,7.174666,8.123929,8.535622,10.196855,10.060927,8.97798,8.696628,6.895298,8.54734,8.380221,5.328622,7.260059,8.853346,8.182888,7.532754,9.323867,7.849235,7.766466,8.317679,8.245901,8.389223,7.312686,6.128449,7.872696,8.586287,7.62506,7.776356,7.878998,7.758224,8.244098,7.639177,8.624236,8.476967,8.042356,8.055996,5.553261,7.241437,6.981319,9.028408,7.921658,7.423869,"EFS_L5"
"26","PADKYP",7.878478,7.93701,7.846389,8.812105,9.089279,7.524369,6.34956,7.268599,8.492475,6.710174,8.275433,7.75767,8.085117,8.606305,7.300972,8.698507,7.424094,7.427886,8.428077,9.264387,10.548842,6.354319,8.562239,8.243633,8.145674,7.055669,8.278131,8.584949,7.046847,7.546164,7.945891,10.738479,9.244723,8.296723,7.828671,6.745847,8.226868,8.248816,5.663695,7.06127,8.103619,7.910636,7.308066,9.358355,7.418508,7.558834,7.436921,7.915816,7.25227,7.300818,6.121445,6.922478,7.675509,7.745266,7.513669,8.057347,7.602645,8.006199,7.515047,8.117244,8.310639,7.757634,7.544368,7.962542,7.334236,6.977646,8.816753,8.474026,7.111217,"EFS_L5"
"27","PADLDA",8.021959,7.632558,7.826037,8.583671,8.803944,7.680286,6.192315,7.144174,8.40439,7.336471,8.260339,7.282013,8.529538,8.666087,6.529394,8.401343,7.332006,7.631967,8.273942,8.768806,10.593138,6.411438,8.795608,7.77211,8.376063,7.151619,7.882457,8.769109,7.066737,7.882883,7.706623,10.924114,8.17192,8.234732,7.377929,6.854182,7.309485,7.516383,5.507991,7.348874,7.937835,7.614759,7.600569,9.164291,7.668006,7.395438,7.487964,7.80263,6.59776,7.197013,6.155086,6.884475,7.140323,7.561273,7.531849,7.968487,7.498449,7.505474,7.343128,8.263289,7.863678,7.77363,7.613575,6.280105,7.260646,7.007575,8.153869,8.557513,6.994604,"EFS_L5"
"28","PADLDT",7.37486,8.02008,7.967113,7.243273,9.163515,8.461223,6.841275,8.026662,7.988912,7.845045,8.130912,8.005904,8.302698,8.904604,8.029768,9.185347,7.709922,7.554181,8.568398,9.302326,9.887487,6.81776,9.095986,9.486847,8.655459,7.002959,8.633783,9.438338,7.062785,7.954698,9.032413,10.258913,8.808627,9.418323,8.719559,6.8157,8.18248,8.367952,5.6098,8.034949,8.533546,8.344469,8.053286,9.359942,7.609094,8.15232,7.898169,8.403652,7.009708,7.471144,6.328749,6.6641,8.265571,8.403172,8.102281,8.748604,7.926364,7.604872,7.819061,8.351577,9.12694,7.703741,8.449655,5.344397,7.313947,7.548662,8.99319,9.185382,7.063308,"EFS_L5"
"29","PADLES",7.428905,7.574245,7.944628,7.893082,9.573953,8.000385,6.519605,7.665967,7.511173,6.737317,7.789791,8.25829,8.126422,8.680017,7.159466,8.554434,7.074996,7.435204,8.18074,8.968767,10.495634,6.401755,8.715289,9.623471,8.568035,6.726993,8.597838,8.582151,7.385504,8.473918,8.815774,10.46,9.699063,8.115571,8.140467,6.83033,7.290761,8.117165,5.387659,8.125685,8.549619,8.465282,7.595878,8.95409,7.762365,7.556433,7.728666,8.045476,7.604203,7.053935,6.164489,6.893273,8.006401,8.34128,7.744114,8.453966,7.70885,7.357692,8.302741,8.129771,8.72598,7.711573,7.981614,5.855386,7.534535,7.35652,8.507171,8.863439,8.069167,"EFS_L5"
"30","PADLIC",7.26001,7.507897,7.503743,7.729381,8.704864,6.923355,6.42911,7.228113,7.86928,6.020729,7.011385,8.144318,7.596694,8.526854,6.776904,7.9379,6.511679,7.63713,8.292916,8.803614,9.253652,5.921192,8.635352,8.939507,7.874929,6.705916,7.972979,7.939718,6.457649,7.987822,8.650993,10.524505,10.164783,7.694407,7.890687,6.26447,7.742768,7.393842,5.364896,7.055417,8.391833,7.927609,6.621046,8.620922,7.38629,7.402927,7.658741,7.608147,6.568162,6.733041,5.313879,6.59556,7.62865,7.356348,7.663438,8.5844,7.422382,7.048288,7.513297,7.880531,9.140359,7.971345,7.963731,7.269945,7.43405,7.128043,8.090617,7.743141,6.862195,"EFS_G5"
"31","PADLJN",7.337473,7.432132,7.377729,7.653266,8.578174,7.641567,6.84697,7.48015,8.198812,6.940491,7.681815,8.360553,7.985127,8.908966,7.348681,8.699718,6.328609,7.621999,8.708109,8.925947,9.316361,6.034653,8.825354,9.402925,8.149045,7.068287,7.920463,9.330878,6.741561,7.78011,8.863792,10.154114,9.092987,8.589118,8.07266,6.204768,7.627948,8.037609,5.330226,7.603882,8.294296,8.323912,7.42228,9.193701,7.525467,7.627364,7.643827,7.989295,6.408072,7.073528,5.769117,6.540896,7.671014,7.977063,7.867341,9.663338,7.606636,7.067265,7.743143,8.079965,9.082715,7.414348,8.193924,5.491562,7.504273,7.135861,8.371616,8.460002,7.290413,"EFS_L5"
"32","PADLKJ",7.347918,8.018228,8.009514,8.037093,9.225576,8.552697,6.783785,7.983193,8.353032,7.417313,8.034158,7.824632,8.176129,8.596626,7.752977,9.252976,7.891284,7.638489,8.693632,9.449566,10.089296,6.427263,9.053634,9.543938,8.519594,6.801372,8.64174,9.243744,7.132735,8.033343,8.708953,10.539003,8.62525,9.010506,8.539855,6.94841,8.372946,8.602633,5.796858,7.49621,8.485604,8.339832,7.900976,9.2427,7.662,7.774307,7.958916,8.234834,7.666333,7.628574,6.412689,7.016582,8.391007,8.329958,7.85588,8.538104,7.841167,7.776317,8.197055,9.245245,9.120207,7.757176,8.311288,6.539539,7.251949,7.400758,9.245783,9.011883,7.206346,"EFS_L5"
"33","PADLNM",6.815232,7.669493,7.914829,7.309795,9.229648,8.529364,7.01384,8.419356,7.24276,8.050939,8.216133,7.975276,7.97266,9.534758,7.91647,8.926989,8.467669,7.840836,8.629979,9.202879,10.34186,7.055666,8.952218,9.649838,8.428195,6.696459,8.738964,9.543454,7.204515,8.678116,9.210853,10.577135,8.519787,8.803212,8.968708,7.134795,8.90575,8.482537,5.511869,7.770432,8.886146,8.731645,7.60331,9.288461,7.74285,7.953467,7.472879,8.208181,7.98483,7.35839,6.150998,7.409383,8.48071,7.794447,7.59202,8.3482,7.861272,8.188383,8.518041,8.355817,9.123756,8.149488,8.218551,5.678599,7.712764,7.081972,9.133623,8.719368,7.299529,"EFS_L5"
"34","PADLPR",7.474014,7.694258,8.117535,7.178119,8.907401,7.879473,6.1291,7.536952,8.173567,6.012893,7.215584,8.242686,7.87487,9.084723,7.783981,8.406232,5.865942,8.257265,8.152946,8.887224,9.285951,6.503446,9.107653,9.522969,7.95419,6.937141,9.191519,8.539763,5.981569,7.8189,8.814243,10.236019,9.736794,8.79271,8.630922,6.522938,7.850192,7.722254,5.407669,6.927232,8.439364,8.599287,7.335882,8.695842,7.608137,7.632458,7.440624,7.875543,6.802311,6.878453,5.426502,6.60308,7.454837,7.818366,8.037449,8.512166,7.610787,7.208162,7.755881,7.978844,8.860498,7.395847,8.560763,5.570815,7.493327,7.474946,8.108094,7.914188,6.908616,"EFS_L5"
"35","PADLPZ",7.362992,7.415817,7.296229,7.29232,8.904082,7.228703,5.901605,7.263373,7.863065,6.248629,6.971891,8.466362,8.139657,8.775149,7.500162,8.424026,6.312966,7.918805,7.720748,8.661005,9.356825,6.071744,8.636685,9.328399,7.795712,7.032283,8.527304,6.636242,6.370693,7.967009,8.598136,10.111975,9.815803,8.089458,7.598535,5.596355,7.090865,7.798567,5.406053,6.753995,8.879206,8.793972,7.371901,9.265041,7.786705,7.475784,7.52783,8.21616,6.310817,7.129741,5.217654,6.612352,8.164476,8.152301,7.947534,8.434523,7.554038,7.141943,7.870718,8.683623,8.778284,7.49695,8.053132,6.514271,7.690208,7.407058,8.938941,8.744947,6.64632,"EFS_L5"
"36","PADLTD",6.912674,7.73961,7.990362,7.131629,9.574813,8.534615,6.524425,7.964175,8.115128,7.025588,7.700002,7.833218,8.216159,8.492618,7.544678,9.177623,8.264899,7.790273,8.584107,9.422656,10.534681,6.926417,8.921484,9.135232,8.355291,6.873768,9.092339,8.926271,7.023985,8.00124,8.32346,10.270656,10.410387,8.713738,8.317554,7.178313,7.978915,8.45273,5.410973,6.983172,8.375571,8.244184,8.125034,8.839609,7.629315,7.69858,7.617742,8.170377,7.782878,7.105411,6.022521,7.11036,8.298263,8.449075,7.70503,8.438306,7.737122,7.791669,7.939975,8.524795,8.743536,7.909247,8.404899,5.725278,7.461471,7.406475,9.440546,8.907293,6.792353,"EFS_L5"
"37","PADMGA",7.972164,7.011017,7.614246,8.976025,8.404426,7.624238,5.986085,7.315197,8.312538,6.496919,7.907931,7.481243,8.327833,7.974902,6.724583,8.46211,6.730121,7.323493,8.072943,8.764319,10.051642,5.859134,8.356407,9.319659,8.826067,7.105935,7.948518,7.979018,6.982607,7.621481,8.117655,10.645086,9.58611,7.766575,6.74079,6.874885,7.117833,7.470378,5.658702,7.454589,7.926807,8.028981,7.116294,9.11928,7.338327,7.219103,7.57041,7.867066,6.549293,6.967227,6.037976,6.491286,7.016175,7.984874,7.683335,8.319065,7.336039,7.634235,7.595746,8.22583,8.05207,7.357148,7.397742,6.50463,7.242275,6.922378,8.140861,8.558103,7.565348,"EFS_L5"
"38","PADMTD",7.325687,7.925773,7.40681,6.788679,8.827289,8.54786,6.437465,8.356631,7.713198,6.915948,8.198455,8.820894,7.874198,9.418226,8.045654,9.194088,7.534834,7.563978,8.504812,9.449101,10.357341,6.814475,8.508691,8.656234,8.199427,6.791114,8.494994,7.188219,7.221836,8.798304,8.519852,10.718748,10.31118,8.912852,8.353347,6.560887,7.941034,8.516343,5.416333,7.165265,8.326127,8.557676,7.94496,8.770912,7.374562,7.639746,7.592068,7.858218,7.24332,7.168348,5.681138,6.736509,8.211197,8.315258,7.694914,8.486197,7.469537,7.290623,7.396903,8.235355,8.997191,8.233486,8.336942,5.211462,7.226804,7.466285,8.538234,9.054869,7.14634,"EFS_L5"
"39","PADMVB",7.396955,7.639012,7.629525,7.307956,9.128969,7.193002,6.425455,7.185842,8.16798,6.207845,7.332843,8.136641,7.978252,8.066484,7.401059,7.825466,6.017893,7.894662,8.526629,8.800184,8.468092,6.009417,8.742912,8.746955,7.712292,6.977038,8.276838,8.748226,6.130334,7.680689,8.392663,10.068067,9.07577,8.122922,8.393854,6.025437,7.620299,7.219686,5.399705,7.009217,8.273679,7.797883,7.280987,9.085751,7.307756,7.595914,7.587354,8.087262,5.947886,6.908003,5.262528,7.053721,7.348664,8.033283,7.752118,8.93164,7.75621,6.943624,7.534982,7.702448,8.716472,6.949803,8.204384,5.111244,7.383666,7.259892,8.576507,8.344974,7.043289,"EFS_L5"
"40","PADMXD",7.354856,8.174745,8.117255,7.643477,9.645373,8.826441,7.35972,8.572717,7.949062,7.443232,8.456331,8.103228,8.065373,9.156225,7.103662,9.833247,8.607197,7.501962,9.185335,9.579426,10.384916,6.951545,9.03704,9.464033,8.647567,6.713807,8.753557,10.513399,7.699459,8.903058,8.605687,10.409258,10.206813,8.367741,8.706066,7.54269,8.774248,9.13554,5.555035,7.705781,8.702552,8.485395,7.883372,9.258624,7.853644,7.601414,7.887982,7.825891,8.304012,7.593595,6.731826,7.09622,8.561692,7.52941,7.625841,8.57507,7.911368,7.833659,8.057348,9.082164,8.898831,8.322378,8.369386,7.070229,7.31644,7.148987,9.660452,8.805073,7.333644,"EFS_L5"
"41","PADMYD",7.197943,7.490085,7.979764,8.032282,9.026922,8.181043,7.217655,7.658538,8.174895,6.488329,8.197605,8.57647,8.345571,9.117101,7.606168,8.326021,6.976668,7.544245,8.947297,8.745378,9.24733,6.694673,9.673421,9.073746,8.455218,6.84064,8.253587,9.179726,6.743664,8.117025,8.706127,10.483107,8.984193,8.230729,8.390173,6.632498,8.01676,8.640729,5.592888,7.44365,8.579791,8.540859,8.087884,9.240197,7.750141,7.399603,7.642452,8.231413,7.12856,7.491904,5.755804,6.884424,7.985648,7.932007,7.79358,9.099348,7.582429,7.875663,7.666101,7.839471,8.641586,8.067466,8.792516,5.835947,7.341231,7.503002,8.53026,8.715383,7.494521,"EFS_L5"
"42","PADNFT",7.282224,7.60355,7.947959,7.877818,9.212703,8.11691,6.6308,7.895786,7.959843,6.790452,8.162838,8.447095,8.181406,8.983696,7.389554,9.152463,6.948484,7.645808,9.148122,9.111595,9.897187,6.868351,9.403058,9.073704,8.320724,6.818367,8.816761,7.393112,7.255921,8.195006,8.80597,10.555713,9.484287,8.41961,8.515062,6.779813,8.040489,8.60979,5.363227,7.532746,8.934114,8.809969,8.001788,9.259188,7.858105,7.685836,7.533812,8.076616,7.355848,7.243218,5.924884,7.282683,8.269626,7.990057,7.775421,9.099334,7.790808,7.626298,7.813506,9.001797,8.805958,7.544234,8.331041,6.030979,7.757179,7.548006,8.68541,8.4978,7.532895,"EFS_L5"
"43","PADNNX",7.441298,7.666838,7.741907,7.932143,8.814077,7.472105,6.472265,8.074716,7.952912,6.248245,7.54296,8.130105,8.028329,8.712153,7.769429,8.804095,6.458056,7.847646,8.013075,8.691285,9.056607,6.336781,8.699429,9.419008,8.671172,6.661313,8.850102,8.303926,6.414233,8.512389,8.813337,10.260116,10.60591,8.297165,8.321341,6.167655,7.079102,7.814845,5.423795,7.281383,8.506056,8.460238,7.622743,8.99249,7.511109,7.646886,7.740868,7.938864,6.577142,7.076635,5.792974,6.658125,7.914401,8.331113,7.674259,8.893415,7.212625,6.820852,7.76166,8.425183,9.064936,7.74934,8.545936,7.606789,7.491684,7.614198,8.667206,8.574886,6.710955,"EFS_L5"
"44","PADNXC",7.300875,7.574475,7.945527,7.483756,9.361128,8.458284,7.023825,7.791941,8.32262,7.702917,8.100607,7.962403,8.183685,9.166946,8.036198,8.707852,8.13108,7.895358,8.701207,9.158969,9.737688,6.624398,8.986201,9.355145,8.550212,6.972744,8.503311,9.224184,6.817774,8.131265,8.586081,10.314711,8.626183,9.028184,8.493094,7.15329,8.510041,8.520717,5.707953,7.574873,8.646245,8.272131,7.671254,8.977566,7.743035,7.780188,7.848752,8.173798,7.6886,7.209783,6.309396,7.188694,8.453835,8.236929,7.806122,8.319859,7.695945,7.760478,7.568376,8.747354,9.002243,8.054131,8.324029,5.932246,7.309626,7.623409,9.122075,9.391839,7.265486,"EFS_L5"
"45","PADPCI",6.890199,7.674877,7.821896,6.57632,8.773243,7.686493,6.794345,8.040915,7.741435,7.141153,7.812605,8.184218,8.075799,7.956103,6.858554,8.747667,6.383255,7.314552,8.428643,8.972926,9.285299,5.974361,8.660541,9.600553,9.217374,6.46669,8.512659,10.568706,7.747265,8.572474,9.082633,10.267829,9.852607,8.255824,7.880914,6.447135,7.257731,7.991154,5.375248,7.477537,8.434487,8.350318,7.619785,8.952801,7.481283,7.290448,7.775,7.832036,7.479887,7.092396,5.842946,6.663665,7.862047,8.231364,7.558938,8.912459,7.350782,7.20148,7.388963,8.890812,8.735644,7.910456,7.737048,6.039558,7.747872,7.304944,8.578226,8.843201,7.089094,"EFS_L5"
"46","PADPEY",7.040592,7.621575,7.442958,6.683291,8.875866,8.460903,6.759845,7.875962,8.254328,7.072507,7.643307,7.729221,8.114161,8.45453,7.870452,8.927678,7.792958,7.729233,7.875839,9.356656,10.05281,6.909558,8.81077,9.602227,8.360031,6.879558,8.557719,9.07721,7.231287,7.56995,8.148696,9.841593,8.61782,8.647242,7.864995,5.988033,7.731771,8.257935,5.420749,6.755748,8.012712,8.019936,8.043617,8.7591,7.408949,7.353889,7.511489,7.809501,7.298374,7.041579,5.978704,6.827415,8.036691,8.475547,7.824616,8.573397,7.766947,7.24746,7.796084,8.586246,8.976266,7.940425,8.267323,5.11935,7.286252,7.399616,9.115992,9.057669,6.788196,"EFS_G5"
"47","PADPHP",7.680537,7.718437,7.918714,7.466099,9.044546,8.595808,6.75485,7.740043,7.921918,7.257037,7.698806,8.324951,8.295833,9.027181,7.492115,8.735214,7.842598,7.640327,9.086139,9.00007,9.977718,6.397571,9.449066,9.312402,8.204691,6.893822,8.863349,10.112932,7.327683,8.130025,8.889275,11.049826,9.926253,8.585648,8.148056,6.8876,8.397626,7.96045,5.354008,7.208803,8.773794,8.672017,7.898525,9.313936,7.63764,7.729636,7.548225,8.027672,7.572796,7.271252,6.070537,7.111312,7.985501,8.126208,8.010989,9.036008,7.736677,7.609619,7.649017,7.969806,8.854808,7.797495,8.280923,4.848524,7.303021,7.634697,8.770012,8.925177,7.41479,"EFS_L5"
"48","PADPMU",7.049482,7.771398,8.084931,7.511187,8.343904,8.134473,6.86186,7.692217,7.961752,7.273906,7.777802,8.151051,8.197589,8.772528,7.442008,9.284382,6.815572,7.611677,8.876719,9.268847,9.756139,6.531897,9.431351,9.671282,8.344219,6.925202,8.818952,6.318632,6.841365,7.951749,8.948326,10.249654,8.543617,8.447872,8.602105,6.737288,7.787497,8.154056,5.397577,7.901156,8.284997,8.422001,7.780385,9.179672,7.704367,7.64049,7.577564,8.266789,6.875208,7.3861,5.824848,6.964722,8.247921,7.85312,7.897585,8.752929,7.638392,7.15059,8.293845,8.179697,8.895825,7.26677,8.399638,5.215555,7.526589,7.833278,8.759474,8.439395,7.693181,"EFS_L5"
"49","PADPRJ",7.17272,7.4774,7.707699,7.758384,8.612385,7.65522,6.554235,7.940185,7.697073,6.809575,7.455345,8.057077,8.042946,8.88914,7.2457,8.78654,7.136194,7.630227,8.713875,9.306151,9.536962,6.044314,8.464771,9.363572,8.088763,6.871352,9.209742,7.434256,6.204017,8.571321,8.33766,10.719705,9.916217,8.492238,8.007118,6.660953,7.356016,8.230116,5.432565,7.577568,8.636549,8.309726,7.625977,9.029749,7.486987,7.476425,7.73962,8.27712,7.524574,7.350314,5.662957,6.969227,8.42266,8.236503,7.747818,8.473826,7.337751,7.008042,7.849598,8.970251,8.780911,7.981953,8.026302,6.09463,7.477143,7.570072,8.646973,8.616365,7.409325,"EFS_L5"
"50","PADRYN",7.219394,7.486798,7.685182,7.068991,8.691162,7.647676,6.83034,7.661409,8.01703,6.257953,6.771059,7.668828,7.242069,7.97417,6.961295,8.416241,7.103044,7.856841,7.382952,8.565063,9.224235,6.213378,8.097496,8.359074,7.194654,7.148947,8.199359,8.386297,6.477391,7.644112,8.223082,10.052504,7.80312,7.936149,7.749618,5.965782,6.939182,7.467943,5.560887,6.736625,7.826849,7.926195,7.091588,8.275609,7.293362,7.381976,7.178893,7.289546,6.292426,6.313178,5.640937,6.41425,6.661627,7.238539,7.783114,8.048307,7.499756,7.355453,7.63487,7.746581,8.066951,7.118618,7.891571,5.255668,7.437026,7.230598,8.410656,7.354215,6.181178,"EFS_L5"
"51","PADSEC",7.298953,7.696132,7.619932,7.396427,9.098899,7.687461,6.884355,7.252087,7.921427,6.469125,7.487484,8.63956,8.145774,9.268896,7.622832,8.730487,6.80819,8.021941,8.459641,8.727117,9.741182,7.032292,8.768099,8.430096,7.530208,6.700444,8.666243,8.8229,7.116281,7.929248,8.539808,10.999874,9.737366,8.470792,8.232585,6.995857,7.907666,7.638216,5.128186,7.403193,8.325451,8.303355,6.951635,8.95243,7.61277,7.705743,7.664056,8.260997,6.981141,6.870611,5.806363,6.967192,7.730013,8.328218,7.586823,8.976543,7.586841,7.105774,7.728845,7.480801,8.590227,8.264076,8.586103,5.955766,7.371103,7.308475,8.459501,8.865069,7.376798,"EFS_L5"
"52","PADSMF",7.271271,7.584713,7.889927,7.79879,8.811546,7.858542,6.659395,7.701276,8.0075,6.354909,7.559228,8.773382,8.11289,8.470969,7.678464,8.625332,6.412772,7.99721,8.415397,8.806243,8.498018,6.188864,9.124486,9.421022,8.391081,6.951496,8.281106,6.734049,6.391065,7.966154,9.014244,10.290872,9.3585,8.491446,8.554315,7.302618,7.67816,7.748455,5.705283,7.446197,8.717942,8.363358,7.539466,9.179075,7.488697,7.959194,7.584069,7.995736,6.477356,7.203781,5.383069,7.035661,7.962264,8.040781,7.875217,8.694555,7.727155,7.24778,7.796148,8.424873,9.059425,7.266543,8.138099,5.426505,7.617913,7.507391,8.599279,8.339605,6.993493,"EFS_G5"
"53","PADSXE",7.149186,7.743665,7.629772,7.86307,8.997128,8.095608,6.130155,7.696374,7.70671,7.048114,8.000294,8.158703,7.720501,8.665011,7.048534,9.192569,6.806466,7.521074,8.492235,9.477896,9.619749,6.443405,8.513153,9.094952,8.081137,6.600127,8.46218,7.706292,6.934229,8.201928,8.676984,10.396979,9.036027,7.922553,8.331252,6.905365,8.158867,8.382641,5.315662,7.590192,8.738742,8.532047,7.545119,8.759396,7.671848,7.550017,7.983051,7.887834,7.184318,6.985736,5.634663,6.993455,8.154323,7.770015,7.649473,8.722138,7.394905,6.973545,7.956564,8.058727,8.369442,8.234397,8.508068,6.006769,7.411776,7.240795,8.525294,8.671203,7.338029,"EFS_G5"
"54","PADSXU",8.646909,7.613898,7.910426,8.409963,9.154208,8.277121,5.997525,7.938182,8.219785,7.127303,8.33432,7.807256,8.454327,9.028604,7.183695,9.375273,7.872356,7.502961,8.483622,8.858176,9.993943,6.658376,9.040011,8.714235,8.400155,6.716244,8.539166,8.705613,7.092407,8.461276,8.376965,10.812911,8.603603,8.354327,7.76648,7.286463,7.819296,8.565835,5.195685,7.601187,8.41384,8.665724,8.00368,9.053369,7.79253,7.377961,7.615319,8.172447,7.138237,7.555425,6.384101,6.651181,7.873029,7.861613,7.548342,8.265248,7.622611,7.744421,7.857382,7.869768,8.266589,7.901091,8.185243,5.840034,7.275387,7.172702,8.577435,8.314548,7.348586,"EFS_L5"
"55","PADTCU",6.901459,7.058768,7.258385,6.736236,8.775962,6.961598,6.588105,6.821298,7.431667,6.303746,7.451779,7.765576,7.761371,7.963941,6.827195,8.500644,6.265319,7.172393,7.457741,8.710474,8.849049,5.859284,8.469914,8.312499,7.345324,6.797697,7.981666,6.028137,6.176575,6.922151,8.157109,9.562548,8.014793,7.87323,6.870205,6.738453,6.698294,7.031888,5.441148,6.598773,7.763356,7.567941,7.020266,8.782613,7.093652,6.982848,7.343387,7.82383,6.420027,6.983823,5.608168,6.642794,7.545249,8.127339,7.514966,8.07782,6.92145,6.804078,8.017648,8.070244,8.398777,6.772054,7.620624,5.830951,7.119178,7.296296,8.380619,8.376127,7.025642,"EFS_L5"
"56","PADTJJ",6.658767,7.707007,7.987294,6.580354,9.357373,8.671157,7.185785,8.276409,7.94915,7.361146,8.192412,7.835922,7.986285,8.717448,7.820406,9.234994,8.11152,7.64764,8.751771,8.985219,10.389735,6.577549,8.773246,9.281504,8.408352,6.653569,8.865207,7.462681,7.231193,8.532838,8.574216,10.160879,8.550604,8.810809,8.62592,6.832315,8.543829,8.599895,5.436373,7.301092,8.414919,8.37988,7.868052,8.884438,7.58333,7.72486,7.623762,8.010944,7.946981,7.060761,6.255744,7.026014,8.475999,8.147834,7.619683,8.518605,7.531107,7.453907,7.943376,8.825987,9.140084,8.196965,8.278748,4.831571,7.103264,7.239956,9.448182,8.82511,7.217173,"EFS_G5"
"57","PADTRV",6.791204,7.20721,6.587713,7.46844,8.471848,7.703032,6.345585,7.354346,7.668508,6.218355,7.305536,7.329424,7.86752,7.913677,6.828342,8.195848,6.569095,7.573644,7.736929,8.515116,8.365059,6.59882,8.118482,8.267375,6.948523,6.778538,7.805025,6.840328,6.115977,7.550245,7.753351,9.447336,8.24117,7.707793,6.63252,6.297065,6.690678,7.176149,5.418541,6.789098,7.559929,8.054669,7.805163,8.185168,7.041622,6.908932,7.266834,7.513796,5.267907,6.666668,5.594318,6.432036,7.396471,8.475664,7.291144,8.536484,7.184279,6.535429,7.211089,7.045815,8.735868,7.626588,8.118312,4.786804,7.145938,7.059915,8.081719,8.689169,6.159513,"EFS_G5"
"58","PADUKP",6.921217,7.379613,7.802728,6.854457,7.929706,7.278506,7.539355,7.085918,8.108883,5.812593,7.734597,7.446648,7.954224,7.734289,6.126406,8.205359,7.591395,7.05796,7.863716,8.977079,8.340705,5.996433,8.57826,8.497697,6.889638,6.955467,7.846207,8.789233,6.671098,7.370816,8.530609,9.848183,8.483843,7.569555,6.767401,6.12983,7.057917,7.623954,5.417804,6.489078,7.758467,8.048551,7.629215,8.459384,7.117098,6.759077,7.727811,7.698656,6.374722,7.447714,5.414604,5.836195,7.055696,8.055895,7.670041,8.888062,7.290229,6.592263,7.26123,7.802443,8.000458,7.533212,8.109794,5.16986,7.457333,7.449638,8.574532,8.074732,6.73008,"EFS_L5"
"59","PADUWR",7.785666,7.673233,7.829619,7.655516,9.260192,8.11624,6.839485,7.582202,8.168935,7.53165,8.248263,8.089381,8.074025,8.995751,6.814162,9.536225,7.932537,7.440081,8.64286,9.027898,9.555798,7.09334,8.176298,8.486713,8.761085,6.488676,8.821878,7.883421,7.554279,8.265439,8.377399,10.557054,9.26262,7.878135,7.930512,7.53706,7.944015,8.688258,5.349539,7.701353,8.457749,8.556994,7.571155,9.361239,7.814044,7.534327,7.533168,7.769836,7.953174,7.372492,6.327935,6.929598,7.573837,7.492779,7.399008,8.23272,7.875977,6.96938,7.84916,7.765472,7.010164,7.898304,7.938544,6.062414,7.488804,7.099238,9.206259,8.379164,7.636607,"EFS_G5"
"60","PADUYJ",6.981174,7.997743,8.069343,6.97753,9.453365,8.688398,6.81654,8.344818,7.879563,6.827643,8.014526,8.18553,7.898239,8.932131,7.731248,8.852235,8.276803,8.113508,8.707736,9.425766,10.187367,6.869486,9.101461,10.231973,8.648961,6.742277,8.76544,8.988301,7.200403,8.402196,9.039953,10.119261,9.06262,9.070077,8.681896,7.07507,8.486145,8.662717,5.631881,7.576074,8.755229,8.522576,7.672242,9.11664,7.895967,7.394166,7.931276,8.202264,7.935279,7.77756,6.762698,6.811843,9.003442,7.941311,7.884558,8.288845,8.442776,7.416766,8.422666,8.67552,9.083155,8.15235,8.149093,5.283274,7.474366,7.169313,9.638115,9.100223,7.041915,"EFS_L5"
"61","PADVSN",7.112024,7.427697,7.916657,7.391959,8.851109,6.799556,5.73697,7.789692,7.642588,6.370545,6.892602,7.962382,7.763064,7.534678,7.195558,7.513384,5.637505,7.229953,7.952829,7.920676,8.256369,5.23271,8.82225,9.780231,7.749727,6.933699,7.130258,7.08931,6.202739,8.073288,9.626193,8.757799,8.14737,8.175258,7.36281,5.315795,6.657428,6.545798,5.559461,6.667737,8.182439,8.595467,6.812674,9.509233,6.395028,7.273519,6.963926,8.058299,5.349906,6.520016,5.136915,6.3304,7.29469,7.664107,7.715297,8.544218,7.536062,6.563669,7.885636,7.810382,8.943692,7.110402,8.005116,5.940269,7.682427,7.060781,8.548867,7.860253,6.589702,"EFS_G5"
"62","PADVWW",7.009434,7.70834,7.995631,7.591439,8.59895,8.140368,6.33537,7.725627,7.664803,6.469557,7.48884,7.953035,8.070723,9.419283,7.310712,9.17383,6.977098,7.82553,8.593319,9.028074,9.703086,7.343907,9.041946,9.48897,7.675637,6.385688,8.73132,7.055898,6.958397,8.345151,8.753651,10.544527,8.798414,8.211212,7.998382,6.21494,7.568605,7.919753,5.224122,7.189817,8.496281,8.689505,7.448404,8.873004,7.740793,7.288838,7.571825,7.764047,7.234707,7.068867,6.072792,6.709913,7.899969,7.923019,7.75665,9.087295,7.446415,7.162126,8.004073,8.111574,8.724322,7.986169,8.613794,5.899027,7.471441,7.281016,8.437167,8.537819,7.198024,"EFS_G5"
"63","PADWEN",7.51763,7.719903,7.700752,7.450272,9.211681,7.208911,6.59103,8.506554,8.201038,8.310532,7.676982,7.814967,7.767703,8.937994,8.360112,8.647297,8.053661,8.127296,8.394268,9.09716,9.874306,6.218757,8.778409,8.501167,8.959966,6.894316,8.056205,5.697769,5.931141,8.145306,9.117585,9.90661,9.731373,9.02438,9.141335,6.483875,8.974103,8.537272,6.143863,7.136534,9.178831,8.707192,7.792419,9.066402,7.710977,7.909085,8.082726,7.780764,7.60767,7.176785,6.028341,7.487802,8.0521,8.251121,7.931801,8.858476,7.616806,7.013023,8.020323,7.251216,9.127199,8.194621,9.134872,7.283025,7.227113,7.360444,9.203139,8.816273,6.914773,"EFS_L5"
"64","PADWIM",7.774916,7.514675,7.650955,7.997962,8.485332,7.43893,6.60505,7.070668,7.80024,6.210171,7.726658,8.208972,7.802145,8.666113,7.058064,8.600832,6.811122,7.807938,9.043203,9.101729,9.389078,6.514563,8.506113,8.648447,8.514215,7.049712,8.491065,7.675006,6.764399,7.718964,8.074423,10.344655,9.471607,7.757894,7.805792,6.567452,7.644137,7.850502,5.465126,7.403034,8.40568,7.951681,7.295466,9.018412,7.442359,7.230181,7.367298,8.063608,6.804934,6.996186,5.763029,6.413922,7.363678,7.612161,7.202069,8.289389,7.135929,7.019701,7.402434,7.739015,8.278931,7.554872,7.78078,5.812461,7.332359,7.299846,8.170358,8.11711,7.194392,"EFS_L5"
"65","PADWSM",7.508265,7.36831,8.031692,7.937281,9.095536,8.09574,6.639855,8.085664,7.797218,7.575983,8.102771,8.414857,7.962296,8.884517,7.650058,9.38263,7.560933,7.478927,9.301305,8.475773,9.795701,6.284427,9.025391,9.333024,8.591499,6.742042,8.550644,8.126847,7.158023,8.862632,8.797418,10.508608,10.5512,7.962697,8.581405,7.012655,8.727007,8.755565,5.09487,7.916527,8.996161,8.506466,8.048725,9.491935,7.900832,7.805365,7.861805,7.924572,7.528814,7.675398,6.178739,7.0748,8.542324,7.76819,7.629776,8.667125,7.213512,7.102377,7.556061,7.597437,9.021811,7.759402,8.275032,6.205824,7.425157,7.416796,9.311765,8.498975,7.706736,"EFS_G5"
"66","PADWVR",7.314553,7.659838,7.682064,6.91969,8.867611,7.682503,6.611185,7.118012,7.954822,6.552411,7.742309,7.867726,7.726433,8.369338,7.087875,8.33376,6.289962,7.430295,8.063517,8.48119,10.364333,5.763204,8.5534,8.352705,9.550865,6.818002,8.161958,5.758952,6.708637,7.617101,7.676973,10.13117,8.644117,8.223583,8.254325,6.619658,7.16129,7.738522,5.458675,7.38437,8.143094,7.255336,7.147191,8.825073,7.087538,7.389683,7.189441,7.675902,7.698174,6.585988,5.596562,6.759242,7.421222,8.060001,7.453611,8.359007,7.170603,6.622267,7.247659,7.057373,8.3104,7.701334,7.844685,5.742959,6.954982,7.572448,8.387581,8.729468,6.827529,"EFS_G5"
"67","PADXAS",7.430397,7.43377,7.568439,7.661107,8.852862,7.590045,6.73166,7.552776,7.97259,6.51246,7.672837,8.154192,7.850381,8.454632,7.465817,8.399992,6.60844,7.557372,8.199095,8.774957,8.803726,6.186349,8.88235,8.684002,8.001844,7.110074,8.469259,6.618435,6.314844,7.878562,8.509991,10.108407,9.739027,8.410174,8.24594,6.099672,7.710684,7.8914,5.210424,7.269846,8.563979,8.264162,7.756694,9.184477,7.455618,7.618432,7.661684,8.017776,6.714986,7.253348,5.562208,6.756004,8.096543,8.238725,7.567041,9.008107,7.278892,7.083846,7.691165,8.073456,8.894126,7.909629,8.640751,5.627058,7.320043,7.512872,8.63695,8.689493,6.734788,"EFS_G5"
"68","PADXBB",7.781704,7.810748,7.336102,8.082131,7.838788,6.741941,6.19982,6.96718,8.24443,5.981011,6.547923,7.571162,7.679561,7.882991,6.786958,8.340654,5.788519,7.536063,7.697441,8.526671,8.695192,5.489362,8.408128,8.669806,7.332033,6.857318,7.616216,7.632123,6.013355,7.228029,7.812619,9.625876,9.088383,8.082106,7.344578,5.93935,6.556643,7.104473,5.790028,6.99138,7.371682,6.897177,6.839174,9.028692,6.505317,7.322703,7.288132,7.676757,5.087079,6.486335,5.481536,6.070009,7.104542,7.311019,7.403467,8.362753,7.107436,7.095065,7.409399,6.967973,8.324095,6.607058,7.561894,5.382849,7.262598,6.980731,8.089328,8.095856,6.692473,"EFS_L5"
"69","PAIDJS",7.202572,7.33266,7.442284,7.550375,8.67693,7.962499,6.202165,7.698216,7.744562,6.428454,7.297251,7.595609,8.407203,8.029879,6.33215,8.117519,7.343967,7.621398,7.784563,8.534391,9.45293,6.783104,8.759877,8.937181,7.668019,6.953035,8.524739,7.79214,6.612902,7.854506,8.375381,9.990948,9.93683,7.971704,6.949089,6.2809,6.691238,7.425798,5.212484,6.401807,8.025012,7.885188,7.830613,8.613345,7.375049,7.220068,7.212986,7.875224,6.527505,6.955343,5.672193,6.82422,7.14101,7.971468,7.794197,8.439429,7.496578,7.043563,7.343953,7.721572,8.206355,7.248254,7.878089,4.885372,7.314878,7.420056,8.17436,8.468175,6.653423,"EFS_G5"
"70","PAIEIF",7.185037,7.73962,7.693181,7.193689,9.315192,8.627081,6.554225,7.561572,8.017088,6.520313,8.235888,7.742471,8.09264,8.413786,6.205248,9.851017,7.8622,6.65122,8.847695,8.901898,9.970149,6.604234,8.888935,9.447021,8.359364,6.759221,8.566093,9.58518,7.732535,7.787824,8.568673,10.642184,9.439773,7.628568,7.428849,6.312285,8.237674,8.693508,5.189702,7.697286,7.942934,8.481763,8.271692,9.01232,7.464057,7.065331,7.372098,7.597875,7.76135,7.307726,5.982539,6.787178,7.239,7.45514,7.618446,8.719764,7.216215,6.838839,7.847011,7.796262,7.884417,7.744104,8.319783,6.066887,7.109732,7.528211,8.662042,8.197069,7.422757,"EFS_L5"
"71","PAILZJ",7.433535,7.581735,7.393183,8.429652,8.842734,7.116047,6.36796,7.113472,8.067427,6.615431,8.044854,8.075449,8.550805,8.254219,7.140853,9.220387,6.778007,7.230023,8.881564,8.722055,9.474401,5.998007,8.612037,8.88177,8.676963,6.813007,9.932211,8.708338,6.531232,7.36002,8.411034,10.573656,12.256133,8.246489,7.790841,6.337,7.646725,7.89485,5.483256,7.366334,8.160998,8.237458,6.964107,9.152552,7.50507,7.367673,7.604837,7.892448,6.838247,6.76756,5.331274,6.693603,7.740814,8.091452,7.559654,9.065802,7.327271,7.199776,7.663444,9.15161,8.517641,8.720028,8.362057,9.245699,7.42857,7.263655,8.137635,9.019527,7.006676,"EFS_L5"
"72","PAIMDS",7.127589,7.114158,7.50653,7.878278,8.656117,7.449443,6.25064,7.178262,7.557492,6.652075,7.562726,7.889782,8.059447,8.00289,6.396895,8.981939,6.874448,6.669587,8.447437,8.479565,9.551111,6.193898,8.596712,8.715421,7.992838,6.356868,8.051819,7.195741,7.098379,7.861704,8.366895,10.688926,10.12295,7.851618,6.865986,6.245285,7.2646,7.822922,5.156361,7.523525,7.95563,8.363179,7.378157,8.961402,7.159767,6.960484,7.415578,7.842128,6.546565,6.47439,5.895246,6.14177,7.369871,7.958338,7.751826,8.936579,6.927705,6.713664,7.618566,7.3759,8.457742,7.787316,8.212025,5.881849,7.152046,7.076158,8.502217,8.137229,7.003562,"EFS_L5"
"73","PAIPGU",6.771948,7.295558,7.496392,7.73038,8.671292,7.571024,6.461005,7.834329,7.886362,6.573796,7.80031,8.927069,7.900069,9.253429,7.942716,8.870318,6.976024,8.202976,8.759848,9.084722,9.168156,6.848186,8.649181,9.083095,8.402877,6.760511,8.017072,8.540173,6.640985,8.458053,8.665824,10.342651,9.73416,8.43869,8.728279,6.64008,8.016226,8.21153,5.39398,7.280588,9.063585,8.615847,7.739251,8.956845,7.759888,7.733207,7.859089,7.955897,6.73583,7.051032,5.692984,7.050998,8.012695,8.182764,7.637655,8.959351,7.380896,6.857826,7.028338,7.401246,8.832768,8.325469,8.787531,5.309371,7.461504,7.699309,8.502172,8.676616,7.380991,"EFS_L5"
"74","PAIPUD",7.202561,7.109495,7.436242,7.646075,8.603242,7.411564,6.27391,7.351504,7.670832,6.507993,7.67256,7.750563,7.906071,8.038474,6.787594,8.669671,6.60668,6.877642,7.969775,8.639195,9.128195,5.997037,8.539259,8.962462,7.760688,6.63061,7.935155,5.987132,6.75244,7.870361,8.315054,9.952657,10.21701,7.938197,7.152571,6.00702,7.083924,7.672524,5.398857,7.132145,8.055996,8.083706,7.454995,8.703302,7.240355,7.048522,7.33612,7.622084,6.629797,6.886136,5.486249,6.784771,7.867867,7.994397,7.531907,8.45817,7.151004,6.683261,7.41133,8.073838,8.842953,7.787716,7.794411,5.166951,7.14855,7.240649,8.355238,8.544623,7.12824,"EFS_G5"
"75","PAIRDP",6.806719,7.660325,7.788065,7.37001,9.874945,9.0478,6.45359,8.329543,8.010413,6.735479,7.921623,7.421015,8.073804,8.955674,7.521248,9.075877,8.122777,7.754613,8.135084,9.114742,10.981765,6.989585,8.945279,9.12904,8.024247,6.883293,8.601689,9.953607,7.210894,8.250651,8.282085,10.475186,8.814067,8.501115,8.523287,6.63447,8.520073,8.666715,5.271273,7.054058,8.422974,8.310221,7.952989,9.127415,7.414622,7.553604,7.557363,7.922566,7.472466,6.903276,6.103024,7.453625,8.318292,8.211778,7.808896,8.741836,7.661408,7.582214,7.351221,9.035202,8.944324,8.002055,8.384649,5.694803,7.268844,7.351288,9.462981,8.709867,6.779858,"EFS_L5"
"76","PAIRIK",7.103141,7.42453,7.274355,7.131946,8.581853,7.300355,6.63208,7.348193,8.096533,6.620825,7.290191,7.757587,7.941335,8.02233,7.104071,8.124329,6.913123,7.348785,7.701718,8.698998,8.755131,5.729434,8.504029,8.833181,7.546452,6.940572,8.017676,7.183834,6.490725,7.545657,8.306223,9.828441,9.14968,8.157103,7.631336,6.182798,7.117902,7.465804,5.498396,6.93846,7.908332,7.719687,7.307187,8.696195,7.228616,7.392761,7.30457,7.724807,6.853242,6.599877,5.461984,6.668006,7.594339,7.990244,7.700296,8.25994,7.495698,6.82211,7.464363,7.803002,8.858852,7.712756,7.7312,5.386756,7.113018,7.310885,8.381068,8.283765,6.793991,"EFS_G5"
"77","PAIRLN",7.200921,7.544913,7.484683,7.958325,9.140823,7.830606,6.629705,7.521314,7.923047,7.408119,7.876114,8.11189,8.213133,8.700032,7.936192,8.931434,6.854445,7.736145,8.573964,9.603727,9.815382,6.087501,8.801483,9.443097,8.582699,6.882177,8.946064,8.987359,6.777378,7.828535,8.64646,10.751313,11.117033,8.767101,8.809978,6.73172,8.205885,8.424836,5.495028,7.202408,8.413743,8.369957,7.604016,9.161948,7.63958,7.942386,7.539782,7.878103,7.307298,7.094571,5.677043,7.117153,8.385253,8.393066,7.667643,9.148394,7.343893,7.58184,7.715186,8.385193,9.028604,8.730728,8.734131,7.345817,7.451769,7.466047,8.619446,9.280903,7.199164,"EFS_G5"
"78","PAISNS",7.487865,7.575245,7.326328,6.977851,8.796418,7.381654,6.487305,7.16753,8.04807,6.831738,6.982266,8.623728,7.987649,8.82485,8.042206,8.550507,7.417122,8.541392,7.969363,9.128128,9.280937,7.309537,8.714277,8.863063,7.76255,6.955951,8.94915,7.596511,6.233003,7.67868,8.809526,10.586471,9.821197,9.008746,8.717497,6.12745,7.957347,8.085985,5.319009,6.871733,8.617602,8.434953,7.744648,8.737684,7.360554,7.474809,7.575569,7.811562,6.596364,7.027816,5.330927,6.801883,8.516812,8.309457,7.72366,8.666767,7.754598,6.863218,7.358464,7.44714,9.129897,8.069855,8.341537,4.880879,7.316803,7.45176,8.671107,9.461641,6.944018,"EFS_L5"
"79","PAITCI",7.370011,8.049315,7.951762,7.647689,8.9935,8.483626,6.384495,7.830768,8.08995,6.772845,7.941093,8.693181,8.211607,9.093325,7.047636,9.23212,6.823435,7.80357,8.401052,9.196004,9.12059,7.038369,8.819115,8.702704,7.901387,6.928364,8.646714,5.950429,7.090219,8.017064,8.716402,10.712098,10.186103,8.449179,8.084867,6.616855,7.293023,8.342697,5.382772,7.198108,8.310921,8.487783,8.095793,8.923389,7.556996,7.425087,7.410551,7.978883,6.654923,7.161966,6.062903,6.58632,7.911015,7.574206,7.812707,8.950858,7.485498,7.125726,7.352624,8.044091,8.480691,7.709945,8.179552,5.845448,7.457349,7.750087,8.90709,8.412836,7.019747,"EFS_L5"
"80","PAITEG",7.798497,7.613933,7.763284,9.079729,8.496848,7.456525,6.79998,7.103343,8.196027,6.339871,7.707377,7.325732,8.440725,8.198011,6.516146,8.868468,7.428376,6.90033,8.104267,9.262092,9.405593,5.769773,8.601742,8.08999,8.31434,7.098625,7.703007,7.206391,6.529953,7.659744,8.078292,10.693812,10.9106,8.034283,7.140789,6.730295,7.259595,8.663906,5.316741,7.934231,8.188226,7.951654,7.231503,9.059602,7.722495,7.288947,7.715592,7.811596,6.805142,7.204392,5.780981,6.82931,7.53842,7.989072,7.513432,8.544142,7.171488,7.653137,7.903597,9.108247,8.026806,8.057692,7.484451,7.432114,7.238815,7.427765,8.176569,8.802014,6.962787,"EFS_L5"
"81","PAITRM",7.240817,7.509557,7.371823,7.771168,8.662165,7.625745,6.545495,7.342532,7.973768,6.665005,7.91271,8.617641,8.246573,8.455841,7.792641,8.796884,7.196769,7.42464,8.134922,8.835884,9.338618,6.487226,8.75667,8.151818,8.152829,6.694162,8.161858,7.643721,7.051137,7.737316,8.495828,10.96423,9.09624,8.464789,8.38475,6.52628,7.563126,8.104406,5.285668,7.754889,8.64513,8.482216,7.562577,9.178343,7.302708,7.644196,7.728046,7.985257,6.756176,6.897592,5.576781,6.811465,7.469277,8.352204,7.768284,9.187172,7.196066,6.901551,7.034701,7.96797,8.738469,8.137269,8.689567,6.184411,7.445856,7.502497,8.362761,8.623565,6.813265,"EFS_G5"
"82","PAITZV",7.33833,7.958378,7.596415,7.395143,9.013883,7.823895,6.55305,7.795487,8.151327,7.466619,7.422645,8.056881,8.677767,8.382446,7.847887,8.580624,7.17046,7.852897,8.613962,9.704915,9.351948,6.670502,9.336599,8.842569,9.116739,6.937873,8.183467,6.507279,6.612738,8.29588,8.739739,10.638299,10.255287,8.973343,8.296221,6.597315,8.192044,8.223768,5.410321,7.375,7.915759,8.283349,7.879987,9.56022,7.386718,7.817639,7.545185,8.208339,6.671278,7.125454,5.599651,6.883136,7.867086,8.439757,8.106396,9.268938,7.531019,7.408224,7.817749,8.264317,9.411808,8.787011,8.772383,6.917879,7.565314,7.981203,8.583564,8.798762,7.4316,"EFS_G5"
"83","PAIUJB",6.889837,7.480363,7.611039,6.893559,9.967935,8.500469,6.42038,8.081932,7.811477,7.11517,7.686806,7.60309,7.969503,8.491276,7.849146,8.859489,8.284227,7.859432,8.046308,9.227527,10.864955,6.858503,8.910159,9.415385,7.956025,6.816438,8.732844,8.193542,7.187291,8.474758,8.339477,10.16339,7.65737,8.584784,8.184756,6.26412,8.251912,8.246588,5.271623,6.998439,8.331279,8.28282,7.942799,8.847257,7.304273,7.455235,7.555689,7.811945,7.585769,6.867474,6.210856,7.20943,8.256867,8.339493,7.709411,8.387186,7.588604,7.454838,7.675482,7.90636,8.833236,7.940842,8.324222,4.66669,7.260665,7.303597,9.334064,8.794646,6.825023,"EFS_L5"
"84","PAIVHE",7.21174,7.028837,7.167741,8.138823,8.688663,7.173979,6.278665,7.184912,8.10096,6.479209,7.668096,7.708131,8.245671,8.251074,7.909498,8.555413,6.597402,7.82731,7.83935,8.804474,9.562365,6.331649,8.839309,8.933436,8.118849,6.925506,8.634799,8.24811,6.497642,7.846791,8.423632,10.720181,9.628043,8.356394,8.18112,6.293033,6.83472,8.042978,5.436098,6.980007,8.165141,8.354332,7.251702,8.829293,7.442992,7.375212,7.519421,7.804624,6.448837,6.88409,5.435919,6.626563,7.857543,8.585226,7.483777,9.123937,7.403604,6.963954,7.655991,8.087623,9.054367,8.745387,8.127064,8.024827,7.163965,7.285294,8.034791,8.983054,6.913126,"EFS_L5"
"85","PAIVMJ",7.363595,7.214653,7.219816,7.412284,9.359951,7.592675,6.47987,7.431974,7.634387,6.403069,7.427781,7.617722,8.442225,8.184568,7.14049,8.515839,7.501995,7.561477,7.970432,8.857261,10.42062,6.406147,8.501268,8.298605,8.109383,6.666943,8.336703,7.776396,6.830434,8.017158,8.147545,10.576507,9.85163,7.99791,7.422092,6.036567,7.410552,8.087827,5.347898,6.65211,8.244247,8.389104,7.731408,8.734894,7.295017,7.284229,7.290776,7.702849,6.396908,6.61856,5.321289,6.544507,7.346087,8.300164,7.657014,8.661046,7.296605,6.926674,7.248667,8.011735,8.411126,8.393779,8.021686,8.260168,7.348346,7.322062,8.172621,8.884987,6.582507,"EFS_G5"
"86","PAIVZR",7.061531,7.837467,7.733085,7.047815,9.408257,7.960486,6.74726,7.251758,8.000868,6.925268,7.745617,7.205509,8.147087,8.43269,7.331468,8.543908,7.908885,7.393691,8.691996,8.944496,9.736318,6.472436,8.729601,8.898615,8.94313,6.958553,9.991284,8.436722,6.749887,7.600256,8.415758,10.055524,11.6274,8.425802,7.976432,6.46306,7.486852,8.322125,5.503357,6.972644,8.131697,8.212842,7.689617,8.703952,7.657866,7.228757,7.520112,7.7425,7.37329,6.905537,5.909969,6.521681,8.132574,8.382408,7.673006,8.399478,7.52702,7.505137,8.050152,9.054872,8.932212,8.640861,8.173613,6.996786,7.184038,7.475957,8.833796,9.064887,7.127296,"EFS_L5"
"87","PAIWHU",6.996969,7.79898,7.345426,7.100197,8.669576,7.546182,6.178155,7.771815,7.639773,6.486055,7.398405,7.430078,7.576039,8.577535,6.340336,8.486784,6.84875,7.451357,8.052353,9.018457,8.376775,5.859862,8.569887,9.231518,7.742004,6.881384,8.037547,6.652762,6.262049,7.940644,8.316275,9.727824,8.846433,8.022145,7.36103,6.138088,6.966448,7.824233,5.13939,6.763747,8.334729,8.138815,7.507717,8.920644,7.464205,7.262575,7.456454,7.808613,6.436411,6.957571,5.718272,6.810069,7.458963,7.550785,7.599894,8.371623,7.642043,6.613216,7.369045,8.024797,8.698964,7.523543,7.839225,4.875546,7.344284,7.263939,8.773205,8.075144,6.543835,"EFS_G5"
"88","PAIWVG",7.644588,7.628055,7.508772,8.035958,8.935019,7.192967,6.728885,7.421408,8.107704,6.770049,7.390169,8.347789,8.687989,8.802721,8.252253,8.24482,6.237321,8.327778,8.128525,9.00868,8.547407,6.225378,8.76448,8.767658,7.809833,7.426351,8.6698,6.911063,6.084567,7.54537,8.560905,9.979737,10.775533,8.850317,8.244915,6.835562,7.458614,7.769941,5.667436,7.066013,8.178327,8.122171,7.517239,9.130086,7.457,8.017337,7.621403,8.105766,6.259865,6.919333,5.568747,7.081461,7.647183,8.353927,7.836086,9.07441,7.700634,7.440236,7.617263,7.899427,8.904562,7.698891,8.422392,5.683992,7.673218,7.511254,8.312607,9.115108,7.167018,"EFS_L5"
"89","PAIXLC",7.170541,7.438847,7.564387,7.446066,9.511921,7.771959,6.38866,8.237966,7.76812,6.414323,7.506587,7.652045,8.406667,8.354102,6.994471,8.253806,7.583511,7.686277,7.931647,9.014171,9.775112,6.659144,8.483724,8.90889,7.712958,6.740937,8.189891,7.91715,6.669353,8.508591,8.520339,10.45605,7.7857,7.922712,7.293889,6.146122,7.130191,7.55579,5.275966,7.183264,7.7316,8.002509,7.794896,8.858223,7.10631,7.310489,7.671699,7.685533,6.667439,6.847736,5.432712,6.572934,7.652735,8.234576,7.458783,8.44396,7.499996,7.133913,7.549531,7.628378,8.631448,7.642813,8.222149,5.238604,7.316985,7.297845,8.376787,9.073916,6.895559,"EFS_G5"
"90","PAIXNG",7.971066,7.624732,7.854875,7.817471,10.225372,8.464194,6.513685,8.369038,8.01589,6.963743,7.994355,7.518195,8.397033,9.206477,8.407362,9.294294,7.60516,8.42685,7.453578,8.974195,9.460092,7.100595,9.002924,8.824368,8.308596,7.115832,8.132736,6.207629,6.882806,8.381906,9.057609,9.923986,8.569443,9.086994,9.16167,6.499493,7.42201,7.801455,5.452998,7.419588,8.751342,8.650873,8.148568,8.965589,7.691402,7.821579,7.983709,8.106547,7.199594,7.154581,5.998559,6.58087,8.244417,8.571169,8.039893,8.614317,7.578684,7.497717,8.404067,6.009064,9.090158,7.742332,8.628808,5.883959,7.72626,7.68724,8.736168,9.272626,6.972221,"EFS_L5"
"92","PAJYHP",7.304447,7.646755,7.611243,7.828249,8.255389,7.512515,5.883185,7.532234,7.744452,6.6438,7.325463,8.426622,7.67862,8.292966,7.768838,8.349571,6.728268,7.812791,8.348349,9.273906,9.001854,5.868647,8.57238,8.871012,7.92703,6.795742,8.132846,6.094732,6.429805,7.831632,8.725149,10.41174,8.86942,8.009726,8.147222,5.700385,7.941903,7.868718,5.15591,7.049945,8.393547,8.272809,7.262842,8.76198,7.430376,7.438556,7.616094,7.773534,6.592676,6.92538,5.081139,6.738186,7.775793,7.954121,7.529853,9.054488,7.269384,7.023139,7.694989,7.879955,8.945097,7.626644,8.657952,5.254175,7.25493,7.475035,8.188876,8.598549,6.980273,"EFS_L5"
"93","PAJYLA",7.955751,6.928357,7.222615,7.778829,8.741519,7.839627,6.318715,7.565362,8.230745,6.707717,7.996833,7.538306,7.823759,9.061101,7.218641,9.031713,6.602433,7.939646,8.71458,8.837001,9.755,6.469693,9.025072,8.427655,8.595761,7.207168,8.636411,8.705437,6.753901,7.933019,7.695593,10.761898,8.969,8.399264,8.07608,6.709493,7.541119,7.856483,5.561446,7.080629,7.836584,7.573242,7.700169,9.140239,7.45197,7.709556,7.308355,7.506083,7.173486,7.127681,5.891862,7.089226,7.311402,7.47755,7.588204,8.995686,7.557592,7.590098,7.528829,6.842744,7.915264,7.569029,8.067267,6.712596,7.270159,7.177152,8.541851,8.729019,7.541762,"EFS_L5"
"94","PAJYVA",7.303127,7.645182,7.89515,7.581599,8.79155,7.915873,6.76254,8.162976,7.95652,6.994637,7.500248,8.287912,7.941112,8.508774,7.883818,8.512025,7.982196,8.366343,8.158697,9.200813,9.304475,6.695703,8.862042,9.861803,8.166064,6.779422,8.889768,9.210247,6.643809,8.052682,8.8634,10.303895,10.331757,8.794843,8.127032,6.853092,7.8205,8.187857,5.340545,6.774419,8.572182,8.330247,8.004023,9.001512,7.618587,7.780764,8.075842,7.814006,7.140427,7.07434,6.15062,6.70249,8.206531,8.374906,7.964826,8.120777,8.158085,7.52918,8.268143,9.63071,9.235499,8.052468,8.447016,7.027336,7.534588,7.521772,9.340968,9.014973,6.853247,"EFS_L5"
"95","PAJZUU",7.469568,7.9811,7.861346,6.878798,8.308106,8.414284,6.737075,7.814698,8.419854,6.747676,7.681019,8.268746,8.877569,8.809304,7.916168,9.538335,6.715462,7.78139,8.216248,9.183945,9.333437,6.425904,9.129366,8.962462,8.013246,7.280113,8.226427,6.523262,7.111857,7.928065,8.908106,10.388904,9.686667,8.944353,7.647204,6.584008,7.580411,8.152704,5.555629,7.055412,8.034139,7.692945,8.500166,9.65649,7.591776,8.230245,7.898968,8.279069,6.653023,7.339232,6.246491,6.621454,7.197203,8.322527,8.175584,9.10962,7.588648,8.183499,7.872822,8.123769,8.930732,7.156449,8.228366,5.312919,7.539197,7.766218,8.989572,8.913753,7.247172,"EFS_L5"
"96","PAJZWL",7.299525,7.379578,8.041794,7.658605,8.695661,7.739314,6.964455,7.765057,7.799838,7.060049,7.606763,8.402911,7.817619,8.824213,7.548739,8.410043,7.492509,8.161678,8.148178,9.144756,9.549915,6.286123,8.794023,9.692423,8.264953,6.551526,8.350327,8.508197,6.357436,8.149785,8.88876,10.362973,9.424447,8.56675,8.404609,6.784,7.918747,7.54904,5.332142,7.617367,8.41162,8.216273,7.061781,8.859687,7.752074,7.728102,7.760461,7.942953,6.99873,7.172349,6.067994,6.654937,8.030568,7.881462,7.952781,8.106063,7.891513,7.545422,7.770594,8.819278,8.950052,7.978176,8.022382,4.932881,7.614408,7.281581,8.70951,8.450441,7.045056,"EFS_L5"
"97","PAKACY",6.682193,7.557387,7.687952,6.368299,9.140365,8.256596,6.997615,7.680587,7.95789,6.673033,7.556075,7.276697,7.576948,8.168837,7.260228,8.75211,7.749595,7.435885,8.149048,8.919635,9.959152,6.620537,8.489924,8.031642,8.511662,6.744469,8.510497,8.559846,6.931706,7.999597,7.451412,9.856544,9.51513,8.257827,7.956249,6.030107,7.629817,7.965139,5.362073,7.012683,8.259131,7.865248,7.474412,8.27261,7.469748,7.073432,7.32571,7.401018,8.127742,7.050074,6.599087,6.80561,7.940802,8.022628,7.199066,7.783256,7.397682,7.485815,7.46948,7.307131,8.493362,7.920521,7.982662,5.156812,6.841449,6.921135,9.059001,9.263298,6.316713,"EFS_L5"
"98","PAKADI",7.066185,7.396098,7.377575,7.278369,8.557879,7.778035,6.833165,7.599522,7.632193,6.742466,7.410998,7.515996,7.705477,7.666944,6.24992,8.792539,6.509126,7.239689,8.064063,9.226595,8.922745,5.833453,8.516927,9.089223,7.738125,6.534402,8.468913,6.026767,6.827351,7.909802,8.48758,10.022455,10.833367,7.72951,7.052003,6.201455,6.929775,7.911621,5.279456,6.942248,7.746379,8.174206,7.396497,8.946732,7.41652,6.847256,7.161798,7.713243,6.767697,6.80273,5.641699,6.66343,7.59755,8.111913,7.493112,8.530333,7.272879,6.63443,8.212485,8.501499,8.803977,6.922366,7.659182,5.619187,7.492518,7.210499,8.599173,8.381567,6.640718,"EFS_L5"
"99","PAKAFK",7.024325,7.715347,7.756628,7.696087,9.166908,7.902476,6.6257,7.663991,7.759538,6.534592,7.795447,7.528365,7.525913,8.6009,6.808604,8.966131,7.976045,7.604265,7.797303,8.883761,8.994341,6.334115,8.777703,8.817114,8.29757,6.636737,8.375162,8.442399,7.216785,8.183422,9.000788,10.671142,8.75399,7.970443,7.952033,6.68926,6.664221,8.281523,5.104274,6.794205,8.662588,8.463525,7.374447,8.850064,7.910059,7.45195,7.893901,7.518234,7.306961,7.058083,5.95642,6.763146,7.579231,7.248849,7.487433,8.341411,7.809261,7.003068,7.453332,8.523909,8.049068,8.225741,7.783973,5.717465,7.611375,7.232119,8.471574,8.296687,7.056441,"EFS_G5"
"100","PAKANZ",6.912878,7.372593,7.004182,7.241135,8.829919,7.264835,5.76048,7.725612,7.899892,6.997139,7.575565,8.821273,8.087609,8.592075,8.182623,8.302001,6.807124,8.355005,8.787762,8.608168,8.550492,6.877276,8.497107,8.826163,8.334167,6.623586,8.428782,8.419944,6.79504,8.151213,8.548628,10.443944,9.63675,8.805247,8.283599,6.3867,7.779837,8.076817,5.17914,7.160462,8.671058,8.637352,7.72968,8.487967,7.580889,7.860019,7.697359,7.809581,6.548863,6.301494,5.632219,7.167983,6.979629,8.531517,7.693365,9.269454,7.408299,6.787709,7.297287,7.953641,8.907301,8.162701,8.524539,5.141283,7.335899,7.358609,7.982936,8.569569,6.781441,"EFS_L5"
"101","PAKDHL",6.781822,7.529427,7.659022,6.879292,8.517874,7.469123,6.671915,7.27385,7.79208,6.249494,7.416076,8.013433,7.782363,8.611901,7.252098,8.675776,6.782451,7.69318,8.061068,9.08101,9.149575,6.733544,8.544144,8.780165,7.625081,6.763604,8.59051,7.092774,6.921029,7.97744,8.462555,10.582189,9.579953,7.826997,8.193668,6.03297,6.975955,7.682228,5.23635,6.963746,8.127926,8.235354,7.374183,8.697684,7.185283,7.262704,7.662296,7.466077,6.550154,6.648919,5.342104,6.602473,7.687158,8.091399,7.583697,8.882867,7.19188,6.664958,7.160893,6.878333,8.765177,7.736657,8.623652,5.618781,7.110437,7.466085,8.115504,8.363551,6.839586,"EFS_L5"
"102","PAKGCI",6.829852,7.268192,7.202519,6.81603,8.538642,7.713395,6.193,7.463689,8.048493,5.899427,7.346576,7.748018,7.798953,8.264111,6.813445,8.543166,7.519829,7.723962,7.691808,9.002459,9.885825,6.277399,8.457604,8.338589,7.747946,6.899798,8.144531,7.402378,6.320819,7.542023,7.993097,10.294042,10.9042,7.908246,7.534974,6.294697,6.901208,7.989713,5.455066,6.403187,7.722306,7.449861,7.559891,8.392431,7.296078,7.298491,7.358338,7.813077,6.184073,6.985367,5.75523,6.53685,7.471704,7.75317,7.664645,8.229697,7.529762,6.816223,6.904315,6.911203,8.326302,7.64716,8.041093,6.500212,7.154283,7.233554,8.179046,8.388333,6.764575,"EFS_G5"
"103","PAKGKH",8.29234,7.712285,8.010247,7.347773,9.927885,8.138998,6.61169,8.098536,8.164085,7.214691,8.164845,8.270824,8.58346,8.812764,7.972283,9.407829,6.680976,7.330991,8.063618,9.245512,9.788381,6.190372,9.436383,10.414188,9.002702,7.237251,8.771041,7.351921,6.965043,8.369314,9.088405,10.211166,9.319747,9.115598,8.707097,7.174655,8.141161,8.631272,5.694561,8.331942,8.728125,8.578444,8.200944,9.680769,7.816677,7.902872,7.715973,8.511447,7.481895,7.517021,6.06317,6.922162,8.44479,8.59426,8.012023,9.301806,7.744286,7.181549,8.126228,8.923333,9.184644,7.112231,8.198737,5.951349,7.444797,7.780578,9.136366,9.026731,7.724559,"EFS_L5"
"104","PAKGMY",7.686427,7.964195,8.160671,7.284634,9.72288,8.22934,6.880745,8.003561,8.217478,6.991271,7.522067,7.764614,8.525093,9.030596,8.073869,8.013394,7.634069,8.280868,8.021065,9.144181,9.166628,6.447039,9.112968,9.073184,8.437185,7.263875,8.098856,8.87735,6.450459,8.052171,8.787888,9.81324,7.142827,8.947848,8.80774,6.222787,7.81101,8.011369,5.659722,6.881505,8.151073,7.956919,7.729377,9.285431,7.473313,8.069872,7.670519,8.10414,7.38431,7.178356,5.972847,6.966836,7.715806,8.279578,8.090569,9.093209,7.905626,7.524758,7.911745,8.345503,8.990389,7.54291,8.237271,4.920956,7.357584,7.56948,9.238188,9.004854,6.716023,"EFS_L5"
"105","PAKHAV",8.003818,8.024973,7.777905,7.81346,9.397009,8.208752,6.8929,8.007759,8.206102,7.478519,7.935586,8.269046,8.391119,9.076785,7.649776,8.822264,7.094972,7.3205,8.571251,9.393704,9.275276,6.154735,9.193485,10.008858,8.447139,7.245849,9.012961,7.264338,6.826887,8.291498,9.042211,10.484065,8.80792,8.780691,8.568857,7.268952,7.912374,8.320943,5.550211,7.595713,8.548069,8.476213,8.183582,9.566797,7.559917,7.877973,7.438597,8.412231,6.909417,7.473287,6.172626,7.112559,7.890554,8.306409,7.999797,8.990263,7.827252,7.48744,8.046024,8.517553,8.942442,6.631506,7.950653,5.666891,7.315679,7.605018,8.867486,8.379612,7.567758,"EFS_L5"
"106","PAKINP",7.062886,7.151755,7.173282,6.894603,8.91304,7.349423,6.22275,7.726371,7.81795,6.692069,7.645402,8.302627,8.324773,8.280486,6.749909,8.507246,6.949527,7.501995,7.935665,9.032266,9.188353,6.227104,8.491161,9.195092,7.653292,6.684752,8.745954,5.850377,6.685444,8.166026,8.333903,9.991025,10.712933,7.979433,6.845399,6.343477,6.961153,8.041032,5.252452,6.903126,8.06831,7.995123,7.962114,8.847511,7.539855,7.273407,7.467073,7.87011,7.018337,7.14896,5.679171,6.693982,7.753768,8.399078,7.683597,8.385853,7.553686,6.631822,7.550569,7.843526,8.519016,7.880409,7.746269,6.399126,7.471684,7.525929,8.651375,8.820347,6.661918,"EFS_G5"
"107","PAKJBA",7.049691,8.033398,7.431068,6.979575,10.060162,8.816587,6.42164,8.227103,7.315918,7.717653,8.327969,8.868011,8.469381,9.832478,8.555602,8.501671,7.755047,8.088945,8.772922,9.533286,9.852033,7.087965,9.16395,9.760694,8.00125,6.951663,9.128564,8.702741,7.059562,8.695909,9.274474,10.859072,8.391177,9.531666,8.926765,7.29552,8.534374,8.478874,5.511685,7.868713,8.78283,8.348921,8.52842,9.605662,7.374236,8.008976,8.097795,8.215993,8.126966,7.531879,5.948299,7.625694,8.612285,8.579522,7.78505,8.780553,7.975151,7.907524,8.483953,8.457769,9.215795,7.80183,8.272512,5.180357,7.102451,7.483586,8.816034,9.402204,7.844358,"EFS_G5"
"108","PAKSWB",6.924233,7.524218,7.309072,6.632884,8.994286,7.899273,6.25193,7.48207,7.383453,6.761561,7.558304,7.711779,8.212533,8.499401,7.011441,8.447292,7.299859,7.453388,7.810314,8.757297,9.731136,6.578254,8.366982,8.969831,8.67146,6.801505,8.323571,9.462162,6.984515,8.188957,8.333857,10.227412,9.438613,8.177148,7.336447,5.789078,7.163721,7.625692,5.366808,7.066031,8.354555,8.141436,7.725357,8.6069,7.305988,7.245362,7.327275,7.878362,6.949216,6.926823,5.636844,6.595003,7.41859,8.064309,7.555993,8.328729,7.452025,6.638546,7.416387,8.00972,8.428967,7.605049,7.994665,5.757427,7.096115,7.335596,8.379507,8.664618,6.565953,"EFS_G5"
"109","PAKUXT",7.229707,7.583142,7.806335,7.391495,9.119663,8.043652,6.611905,7.982049,7.729612,6.699147,7.788145,8.725057,8.487795,8.013541,7.675342,9.293245,6.724542,7.821618,8.2003,9.377722,9.12632,6.399283,8.793611,9.788972,8.68847,6.731308,8.690867,7.061024,6.865593,8.474729,8.85462,10.794159,10.353293,8.417402,7.795968,6.322745,7.915727,7.985386,5.649658,7.518897,8.434404,8.399005,7.913665,9.2362,7.622273,7.745312,7.708068,8.00057,7.043587,7.167127,5.977652,6.853172,7.622482,8.359505,7.756296,8.945201,7.672625,6.899966,8.244531,8.64871,8.938048,8.129015,8.250396,6.335473,7.591855,7.593839,8.933802,9.029226,7.580518,"EFS_L5"
"110","PAKWCJ",7.089634,7.651347,7.313309,7.222591,8.886379,7.532678,6.643265,7.479707,7.883708,6.296011,7.319425,7.817923,8.122119,8.37567,6.851245,8.234736,6.91585,7.401553,7.674552,8.922655,8.806421,5.833311,8.55758,8.679401,7.815536,7.067471,8.784812,6.799671,6.518818,7.63281,8.251623,9.830472,10.259377,8.017817,7.442527,6.270402,6.561076,7.931597,5.312834,6.560179,8.188537,8.060536,7.67076,8.59663,7.427502,7.215847,7.314601,7.82069,6.609041,6.650121,5.659961,6.796152,7.002253,8.062023,7.705589,8.539609,7.435046,7.019167,7.583169,8.258526,8.26485,8.024677,7.908415,5.647476,7.303312,7.353544,8.322907,8.478875,6.693868,"EFS_G5"
"111","PAKXDZ",7.1106,7.799028,8.106647,7.114035,9.511896,8.629463,6.66773,8.354103,8.465807,7.178759,8.06934,8.363109,8.307725,8.866673,8.030442,9.265019,7.900158,7.97904,8.622098,9.780149,10.333317,6.91106,9.012108,9.568268,8.781401,6.931116,8.592962,9.761118,7.287288,8.609738,8.563669,10.061524,10.4828,8.984767,8.406723,6.997787,8.332259,8.756568,5.460468,7.045439,8.42384,8.210946,8.093468,9.051685,7.818447,8.053307,7.754768,8.181139,7.682495,7.256025,6.476744,7.407321,8.175427,8.497177,7.966606,8.623068,8.035124,8.100393,7.934818,8.441257,9.097897,8.050853,8.411981,5.199338,7.518099,7.809263,9.62321,9.163836,7.448464,"EFS_L5"
"112","PAKYZS",7.470155,7.287653,7.507945,7.692496,8.247092,7.254516,6.17083,7.120685,7.989088,6.332232,7.639919,8.010272,7.896955,7.908899,6.504899,8.525001,5.976735,7.340359,7.662772,8.576509,8.357762,6.001369,8.72529,9.073128,8.410761,7.188332,8.376262,7.027812,6.093911,7.336292,8.211141,9.501182,10.316987,7.806406,7.221414,5.952605,6.693602,7.429252,5.788311,7.745001,8.024256,7.94571,7.296705,9.087475,7.297069,7.334509,7.366891,7.927676,5.957986,6.953453,5.346124,6.353709,6.923526,7.751115,7.579593,8.39987,7.175718,7.139228,8.048602,8.025063,8.311536,7.402562,7.629742,6.221505,7.315617,7.487286,8.622368,8.224663,7.020439,"EFS_L5"
"113","PALAWZ",7.505573,7.370417,7.470183,8.170677,9.391987,7.744167,6.00824,7.073764,7.94496,7.465939,8.366125,7.269055,9.054501,8.823581,7.321694,8.899937,7.158203,7.283913,8.848403,9.740934,9.86504,6.32024,8.87727,9.447732,8.672646,6.885665,8.615539,7.314831,6.682148,7.930066,8.570724,10.698539,9.741493,8.675797,7.757136,6.81324,7.26581,8.368043,5.356847,7.398033,8.279932,8.683658,8.448943,9.305453,8.041913,7.404916,7.449613,7.868365,7.107966,7.357885,5.887676,7.046713,8.306283,8.572026,7.650771,9.314697,7.262754,7.70641,8.484645,9.343137,8.960306,9.213269,8.307317,8.184952,7.539544,7.552592,8.478994,9.65281,7.454153,"EFS_L5"
"114","PALBFV",7.061779,8.380032,8.144834,7.035436,10.49402,8.820508,7.03246,8.463779,7.751315,7.981652,8.220229,8.570805,8.570227,9.584685,8.282289,9.181407,8.333447,8.308355,8.840136,9.774008,10.221172,7.229046,9.216418,9.68187,8.806192,6.729401,9.250839,8.353556,7.83877,9.037708,9.463674,10.958731,8.04933,8.596792,9.250431,6.998635,8.563296,8.925104,5.284549,7.669245,9.209403,8.983528,8.290455,9.234017,8.012768,8.222416,7.803579,7.700274,8.214139,7.61077,6.415765,7.127572,8.72312,8.223087,7.666547,9.039507,7.840443,7.880677,8.454053,9.472794,8.992105,8.66402,8.812861,5.495094,7.689397,7.732223,9.374622,9.824412,7.216437,"EFS_L5"
"115","PALBFW",7.244524,7.04553,7.369262,7.416604,9.30763,7.826653,6.309195,7.327423,7.6626,6.631743,7.188219,8.113672,8.49186,8.118099,6.431228,8.559648,6.771458,7.380933,8.379326,8.860435,9.354657,6.528989,8.521888,8.859912,8.019769,6.848204,8.857202,7.037479,6.873019,7.898831,8.375148,10.559775,10.56066,7.483139,6.87113,5.920045,6.944282,7.726331,5.249814,7.290902,8.099337,8.484875,7.540463,8.816172,7.419371,7.186269,7.337034,7.403346,6.670654,6.879734,5.862284,6.43012,7.423563,8.602774,7.408511,9.10692,7.310339,6.933059,8.06922,7.907863,8.518507,7.981451,8.002372,6.488607,7.301635,7.356424,8.721012,9.249352,6.854551,"EFS_L5"
"116","PALEAC",7.201773,7.334247,7.432551,6.856542,8.980286,7.879081,6.2202,7.579184,7.58944,6.806437,7.563217,7.73121,8.040417,8.906011,6.865928,8.393772,7.163188,7.243506,8.171018,8.884978,9.122465,6.190826,8.374,8.881542,8.057401,6.839324,8.362741,6.727034,6.546683,8.02279,8.274338,10.566016,7.798297,8.122387,7.460283,6.278915,7.21918,7.22145,5.266406,7.261368,7.990633,8.086916,7.537025,8.893369,7.289607,7.129274,7.356359,7.770988,6.724318,6.893921,5.544921,6.734453,7.51581,7.864395,7.390396,8.114115,7.336454,6.73259,7.608211,7.727376,8.491778,7.510202,7.741185,5.144723,7.116308,7.102479,8.330215,8.511993,6.848116,"EFS_G5"
"117","PALEBK",7.026134,7.397563,7.176669,6.993681,9.114612,7.877889,6.2011,7.613036,7.605128,5.997342,7.745082,7.93065,8.129109,8.230192,7.029937,8.5188,6.875866,7.610139,7.650629,8.756528,9.975368,5.979648,8.550088,8.997686,8.812496,6.685861,8.203038,6.652886,6.851416,7.826482,8.444403,9.999188,8.037417,8.078749,7.628711,6.4138,7.578954,7.78912,5.169839,6.909194,8.437759,8.213636,7.953576,8.918738,7.441167,7.320313,7.500026,7.811065,7.198367,6.849284,5.574067,6.863128,7.684303,8.180384,7.487441,8.14262,7.471833,6.836763,7.305803,7.71629,8.653562,7.80425,8.012529,5.529771,7.258479,7.277216,8.246261,8.837723,6.769115,"EFS_G5"
"118","PALETP",7.429043,7.243618,7.703087,7.282506,8.880886,8.132698,6.45746,7.814945,7.636177,6.608634,7.823914,7.947912,7.718431,8.887414,7.565988,8.386335,6.393943,7.863747,8.141941,9.163401,9.405929,6.272855,8.897682,9.126345,8.492641,6.902697,8.348003,8.562812,6.686751,8.349342,8.446114,10.269244,8.357897,8.210862,8.616689,6.34427,7.818648,7.143608,5.440922,7.524061,8.415833,8.184249,7.034793,8.976902,7.230933,7.556465,7.663167,7.963164,7.243812,6.79492,5.262061,6.966071,7.867698,7.984668,7.555411,8.711099,7.338985,7.025896,7.066543,7.161538,9.071883,7.68468,8.484117,4.764299,7.090459,7.603984,8.713716,8.777427,6.819672,"EFS_L5"
"119","PALFRE",7.681143,7.58646,7.601048,8.560166,8.217808,7.996821,6.75452,7.556466,8.515968,6.533921,7.373924,8.089436,8.093526,7.691863,6.763842,8.697382,7.022912,7.274357,7.996792,8.730971,9.778196,6.240301,8.648162,8.477594,7.879536,7.332257,7.669974,9.160229,6.252581,7.822884,8.468281,9.78774,10.517267,8.286799,7.38721,6.853903,7.154924,7.704745,5.753915,6.665383,8.026203,8.070491,7.38579,9.051357,7.419171,7.565504,7.651395,8.242137,6.322806,7.422112,5.867016,6.806334,7.700721,7.934904,7.882251,8.427609,7.583738,7.350246,6.961277,7.534186,8.472156,7.018144,7.458582,4.885946,7.371459,7.627461,8.165052,8.287556,7.043915,"EFS_L5"
"120","PALFSE",8.907891,7.428173,7.453936,8.423324,8.827228,8.080739,6.04099,7.595378,7.973805,6.776551,7.93908,8.046624,8.376095,8.585436,6.766886,9.493586,7.910769,7.329852,8.74104,9.306154,10.13139,6.343,8.854128,9.848087,8.654012,6.716403,8.450519,8.582106,7.922199,7.954676,8.534183,11.113525,9.37821,8.211045,7.253939,6.612138,7.973502,8.235638,5.702359,7.936569,7.945954,8.257263,7.658013,9.429756,7.464622,7.1643,7.818323,8.039991,6.955427,7.052361,6.093707,6.464591,7.738559,7.998431,7.586007,8.887721,7.351876,7.482025,7.807387,7.929527,8.364066,7.446267,8.018109,5.510901,7.183222,7.273346,8.642015,8.506273,7.473115,"EFS_G5"
"121","PALGFF",7.013561,7.58114,7.076311,7.003243,8.003627,8.313071,6.813915,7.778743,8.06537,6.266355,7.446016,7.766532,8.086643,7.98654,6.662758,8.955928,7.606988,7.16493,7.841657,8.819077,9.015097,5.591704,8.612342,8.786803,8.632414,6.94014,8.019827,9.165122,6.781174,7.73128,7.975181,9.925411,9.677533,8.156422,7.157857,6.343678,7.323711,8.042087,5.252058,6.708701,8.044984,7.796391,7.524801,8.686301,7.420991,7.324631,7.339045,7.829557,6.277028,7.12988,5.875884,6.63706,7.499203,7.931132,7.671588,8.545549,7.667663,6.81651,6.907257,7.947563,8.560009,7.375266,8.00922,5.373464,7.169697,7.501498,8.517592,8.597709,6.768823,"EFS_L5"
"122","PALHVD",7.438505,7.731602,7.861063,6.897243,8.758058,7.504333,6.95632,8.07038,7.843948,6.801683,7.497554,7.856356,8.006375,8.731071,7.62388,8.268945,6.261325,7.891567,8.131717,9.317026,8.733218,5.964168,8.899683,9.03178,7.959673,7.076823,8.555035,7.613849,6.350268,8.682644,8.65158,10.171785,9.875823,8.788993,8.526863,6.145312,7.298329,7.957427,5.374796,7.150617,8.364296,8.320597,7.746656,9.108287,7.543699,7.641927,7.686489,7.824641,6.49116,7.003458,5.511471,6.620917,7.825207,8.219241,7.70991,9.020093,7.401077,6.873995,8.067642,7.993234,9.133938,7.531075,8.852235,6.135784,7.353076,7.535319,8.79299,8.773341,6.894086,"EFS_L5"
"123","PALIIN",6.714486,7.819973,7.741476,7.234224,9.486377,8.130783,6.644515,7.254373,7.493167,7.327795,7.977864,7.77183,8.314761,8.743119,7.80128,8.409962,7.103493,7.61077,8.313352,9.254372,9.809419,6.250746,8.749483,8.253359,8.461001,6.732469,8.258008,6.917361,6.995825,8.036938,8.353828,10.77298,8.957467,8.639329,8.479288,6.539255,7.565931,7.888517,5.373839,7.044595,8.35486,8.418339,7.50406,8.782638,7.170562,7.216808,7.467961,7.9212,7.119163,6.87619,5.629144,6.865752,7.912858,8.380003,7.305562,8.230228,7.270904,7.031181,7.474261,7.277154,8.885938,7.98931,8.227439,6.178317,7.001582,7.161093,8.145309,8.921587,6.380669,"EFS_L5"
"124","PALKKV",7.18802,7.338775,7.335994,7.362946,8.112399,7.441135,6.76621,7.457698,8.196003,6.394978,7.752469,7.781769,7.973241,8.056239,6.8957,9.201332,7.506213,7.150484,7.869917,8.862123,9.21609,6.142151,8.48861,9.028819,7.644076,6.700107,7.736761,7.925388,6.426313,7.849979,8.402621,9.701601,8.884357,8.165575,7.035705,6.461592,6.785931,8.230029,5.300547,6.827103,8.132892,8.417829,7.846307,8.805392,7.733747,7.202077,7.411863,7.77317,5.681749,7.292148,5.792539,6.432735,7.824876,8.278486,7.920019,8.608952,7.823265,6.77028,7.61984,8.956232,8.68118,7.699904,8.022966,5.045184,7.288356,7.239765,8.602449,8.754553,6.823996,"EFS_G5"
"125","PALKUC",7.629676,7.590982,8.074171,8.517482,9.140626,7.539697,6.95011,7.598983,8.228457,7.411989,7.619733,7.73056,8.332922,8.85247,7.520324,8.450095,6.987851,7.588646,7.986234,9.066133,9.494829,6.01555,8.739769,8.826086,7.922263,7.421328,8.375369,8.548909,6.342269,7.572471,8.610254,10.212395,9.498276,8.644077,7.987662,6.5083,7.388219,8.215582,5.517743,6.966099,8.091592,8.256887,7.249605,9.144151,8.019788,7.667817,7.618248,7.91657,6.383491,7.025218,6.188334,6.9333,7.71603,7.944737,7.824955,8.38175,7.857128,7.941348,8.159424,8.833374,8.651375,8.038749,7.803985,6.174999,7.455612,7.435328,8.808211,9.211569,7.100197,"EFS_G5"
"126","PALLJJ",7.662392,7.461773,7.852244,7.317802,7.813509,8.288612,7.010995,7.544279,8.589853,6.885239,7.807383,7.563954,8.509681,7.939661,6.705566,8.963027,6.889258,7.137968,8.633904,9.018482,8.893654,6.174453,9.10254,9.791332,9.047091,7.390891,8.246752,10.45808,7.087251,7.796163,8.542665,11.038135,10.3814,8.566069,7.42891,6.94842,7.366529,8.252088,5.755876,7.681094,7.728554,7.375776,7.543371,9.646077,7.551943,7.580177,7.586801,8.431001,7.288474,7.114305,6.09436,6.48343,6.732577,7.928341,7.916861,8.711297,7.344866,8.6213,7.970856,9.395537,8.706524,6.447371,7.702011,8.687679,7.172154,7.70871,8.815348,7.308081,8.030291,"EFS_G5"
"127","PALNFE",7.108836,7.216897,7.246058,6.717758,8.409314,7.441358,6.780975,7.283998,7.723785,6.118501,7.235502,8.182995,8.172401,7.883396,6.924374,8.101601,7.186992,7.512207,7.094617,8.729025,8.631869,6.181025,8.592887,9.037025,7.857244,7.063178,8.283958,6.512557,5.99174,7.626542,8.422328,9.164181,9.793976,8.142936,7.34646,6.086715,6.796981,7.612986,5.347785,6.386132,7.940515,8.079679,7.586621,8.816491,7.405488,7.417627,7.333746,7.92728,6.162083,6.731506,5.385882,6.421872,7.371522,8.127984,7.829534,8.217972,7.559088,6.87075,7.403347,7.351086,8.690122,7.333276,7.657102,5.055259,7.51845,7.42466,8.33643,8.243106,6.707854,"EFS_G5"
"128","PALNHZ",7.099316,7.738687,7.970809,6.895533,9.649411,8.39536,6.78464,8.534871,7.872658,7.351015,8.165011,8.169414,8.081502,8.934306,8.059903,8.523963,8.482539,8.269666,8.403099,9.883694,10.250999,6.82899,8.79147,10.402083,8.635113,7.034992,9.404406,6.810429,7.189047,8.192704,8.871419,10.438,10.188517,9.414305,8.901122,6.492858,8.688377,8.560023,5.176427,7.576999,8.885007,8.410481,8.355763,9.308306,7.693513,8.082039,8.119963,8.410824,8.446329,7.443325,6.004714,7.777027,9.321126,8.341141,8.272019,8.744118,8.028988,7.961962,9.634948,9.656118,9.292994,8.384416,8.853631,5.184296,7.552741,7.70076,9.641361,9.247517,7.586987,"EFS_L5"
"129","PALNVP",7.164513,7.777475,7.363636,6.736168,9.31664,8.201798,6.44175,7.548025,7.50481,7.212447,8.342014,8.148891,8.560323,8.633037,7.090826,9.304859,7.477079,7.128036,8.485079,9.015335,9.146632,6.503287,9.270981,9.407955,8.252657,6.762608,7.97954,8.51378,7.371129,8.012458,8.750804,9.772304,8.75729,8.302906,7.47052,6.909338,7.580345,8.475048,5.202088,7.761487,8.69385,8.429854,8.043239,9.471538,7.846022,7.393827,7.770551,8.246715,7.419702,7.232389,6.075823,6.612422,7.597932,8.320186,7.440467,9.066589,7.337591,6.744962,7.545707,8.674918,9.043794,7.490506,8.281156,4.708994,7.273731,7.41189,8.784212,8.861673,7.117579,"EFS_G5"
"130","PALPIN",7.139092,7.108973,7.132981,7.234638,9.024453,7.46607,6.385125,7.782444,7.746828,6.261087,6.949133,7.85554,8.342132,8.041803,6.800727,7.86702,7.080016,7.724146,7.908636,8.576383,9.384182,6.337662,8.739195,8.510302,8.227816,6.68314,7.681803,8.260757,6.227215,7.989997,8.279453,9.516219,9.579443,8.056488,7.231329,6.120598,6.832192,7.193644,5.460364,6.778301,7.608812,7.916812,7.412357,8.957439,7.154009,7.460889,7.364511,7.859675,5.886745,6.861698,5.458026,6.503074,7.381626,8.395716,7.752055,8.457406,7.641778,6.846233,7.298262,8.252295,8.639317,7.717758,7.892567,5.499766,7.441415,7.207342,8.422119,8.903689,6.544212,"EFS_G5"
"131","PALPSY",7.097982,7.105093,7.415762,6.862548,9.555503,8.023585,6.55518,7.619896,7.412845,6.290043,7.738352,8.184982,8.006305,8.39486,6.871375,8.448062,7.337861,7.739821,7.939006,8.815393,9.626254,6.508878,8.503174,8.719591,8.036022,6.703316,8.010908,7.309488,6.667859,8.072192,8.321429,9.991362,7.904813,7.991093,7.270948,6.22502,7.248131,7.715946,5.220997,6.85772,8.211585,8.130475,8.000147,8.981792,7.309896,7.239909,7.68298,7.739481,6.882343,6.765075,5.939367,6.691711,7.095377,8.078339,7.409712,8.311098,7.306495,7.079015,7.145671,7.785814,8.478277,7.95111,8.003776,5.277658,7.208467,7.178696,8.281556,8.537353,6.62246,"EFS_G5"
"132","PALSAE",7.253815,7.437525,7.920939,7.196612,9.069737,7.87498,6.832345,8.041795,7.576127,6.689734,7.356364,8.338071,8.222629,8.646065,7.403783,8.256019,6.666829,8.147293,8.140788,9.065306,9.099655,6.296002,8.672393,8.596841,8.051075,6.972515,8.012481,8.839971,6.580902,8.447718,8.876895,9.826245,9.48531,8.446907,8.846656,6.230215,7.548333,7.870645,5.174583,7.342949,8.425505,8.465821,7.783401,8.982801,7.54363,7.960692,7.861929,7.561908,6.706992,7.23124,5.638951,6.68154,7.328102,7.770794,7.615356,8.548785,7.507818,7.146443,7.863121,6.803979,8.781146,7.606004,8.198756,5.667761,7.176886,7.597804,8.292753,8.711403,6.986362,"EFS_L5"
"133","PALTYB",7.634824,7.37841,7.883492,8.222356,9.158958,8.264249,6.9182,7.180284,7.922507,7.714975,8.275963,7.785562,8.904805,8.263554,6.639438,9.357695,6.975435,7.169218,8.854511,8.998674,9.842775,6.313703,9.136764,9.480208,9.106626,7.090356,8.82414,8.151374,7.585304,7.781866,8.558561,10.47228,9.944267,8.048983,7.327623,6.969995,7.769158,8.360036,5.396407,8.420543,8.07535,8.111433,7.711912,9.541692,7.611005,7.278784,7.678882,8.41694,7.323989,7.517471,6.745296,6.411416,7.499574,8.09512,7.350124,8.675006,7.378721,7.48949,8.896443,8.547278,8.394242,7.314338,7.91953,6.567701,7.204854,7.474412,8.986859,8.645506,7.975296,"EFS_L5"
"134","PALUDH",7.167669,7.541687,7.665894,6.742581,8.860732,8.059137,6.90617,7.655455,8.312782,6.894611,7.724264,8.115294,8.016248,8.995906,7.238795,9.360945,6.418241,7.456711,8.572027,9.085696,9.889675,6.381848,8.968002,9.447071,8.803582,7.011786,8.686908,7.743496,7.130243,7.948198,8.558421,10.349475,10.629167,8.778503,8.619742,6.973943,8.039252,8.310525,5.465347,8.007143,8.500281,8.178775,7.673785,8.862652,7.822414,7.654476,7.676818,8.106205,7.499346,7.322291,5.935407,6.914438,8.351859,7.901556,7.899638,8.789761,7.643831,6.997798,7.790335,7.848363,8.827469,7.608295,8.366871,5.948461,7.51691,7.429047,8.982242,8.404294,7.545796,"EFS_G5"
"135","PALUYS",7.115089,7.719843,7.775634,7.074367,9.253556,8.106425,6.531195,7.990436,7.787145,7.126464,7.268632,8.591401,8.209903,8.938294,8.35874,8.336336,6.602488,8.172648,8.107843,9.140909,9.080549,6.460796,8.980962,8.982446,8.345829,6.966078,8.964974,6.609497,6.518723,8.257886,8.722566,10.416312,8.70414,8.762932,8.586507,6.476335,7.787781,7.672775,5.532932,7.59259,8.499777,8.329331,7.842595,8.886735,7.320116,7.793923,7.483778,7.476381,6.931976,6.878894,5.546109,7.010578,7.899133,8.41828,7.617536,8.903459,7.532198,7.241335,7.501932,7.877085,9.039573,7.751213,8.606399,5.87151,7.122697,7.447478,8.529138,9.100933,6.709076,"EFS_L5"
"136","PALVKK",7.577812,7.463822,7.785081,8.39948,9.297847,7.610446,6.52629,7.231133,7.845472,6.700667,7.628696,7.688582,8.41983,8.128941,6.735526,8.497216,6.871343,7.26685,8.214928,8.671327,9.448734,6.2223,8.654911,9.473656,8.693238,6.968863,8.288796,7.583391,6.378864,7.672926,8.422312,10.471324,10.155926,7.892479,7.004331,6.304975,7.440171,7.546299,5.224278,7.617605,8.212988,8.307208,7.101661,9.033824,7.49701,7.226217,7.565789,7.803656,6.385547,7.128982,5.611785,6.514742,7.287331,7.932994,7.520977,8.43578,7.363052,7.373202,7.912808,8.288234,7.992444,7.725528,7.782284,6.618854,7.4118,7.05968,8.372262,9.005523,6.819513,"EFS_L5"
"137","PALVUC",7.343959,7.599102,7.404659,6.998892,8.430538,7.548713,6.45923,7.434138,8.062918,6.450755,6.948319,7.457049,8.170046,8.012504,6.889811,8.133332,6.494372,7.63304,7.340731,8.829174,8.60218,5.986814,8.54229,8.903275,7.73369,7.156526,8.860283,7.992741,6.074857,7.734127,8.300448,9.449924,10.598866,8.312036,7.207576,6.480488,6.451232,7.153501,5.353149,6.74557,8.179321,8.132992,7.2698,8.823823,7.353838,7.520173,7.223269,7.813908,6.02025,6.484013,5.602371,6.642321,7.185892,8.19142,7.733743,8.18187,7.646261,6.973275,7.59018,8.318162,8.728421,7.259873,7.530316,6.909194,7.247245,7.316259,8.331268,8.276764,6.631015,"EFS_G5"
"138","PALVVH",6.869385,7.273808,7.165409,7.22371,8.866518,7.855955,6.360205,7.474349,7.47177,6.388595,7.531955,7.952991,8.417243,8.471077,7.270978,8.666593,7.411433,7.91719,7.878889,8.943746,9.567459,6.273623,8.436284,9.164992,8.567859,6.727865,8.735758,6.465656,6.838778,7.798145,8.412607,10.141121,9.45002,8.328147,7.599463,5.945495,6.83029,7.91221,5.099208,6.735645,8.312834,8.277044,7.890823,8.723495,7.227379,7.250508,7.392991,7.843494,6.542111,6.90124,5.629145,6.747286,7.655538,8.432184,7.558079,8.608533,7.332549,6.681332,7.312732,7.957702,8.906495,7.726528,8.17967,6.334469,7.120825,7.190915,8.36488,8.910098,6.622773,"EFS_G5"
"139","PALWBT",7.536102,7.160113,7.722367,7.607741,8.527476,7.65578,5.979915,7.189833,7.903935,6.469979,7.380088,7.430785,8.544097,8.228217,6.542159,8.644981,6.514267,7.340795,8.353503,8.702877,8.578577,5.956613,8.812827,9.521899,8.475114,7.108589,8.060091,9.988064,6.504111,7.404446,7.946071,10.275842,9.57102,7.897458,7.027691,6.63526,7.123408,7.376437,5.506361,7.191076,7.613153,7.641025,7.108573,9.227153,7.470243,7.341397,7.417989,8.143206,6.26771,7.004065,5.804246,6.500459,6.800117,7.90222,7.511724,8.187732,7.502757,8.003687,7.498289,9.083447,8.14132,7.029097,7.507142,8.336926,7.059291,7.217089,8.214101,8.106237,7.068558,"EFS_G5"
"140","PALWSJ",7.231291,8.12923,7.737262,7.433075,9.194221,8.635584,6.945055,8.35572,8.023785,7.199129,8.006182,8.636234,7.97391,9.081021,7.38721,9.127656,7.886468,7.583018,8.623597,9.383788,9.536356,6.348435,8.929551,9.453933,8.312758,6.882526,8.624632,8.587842,7.482781,8.620379,9.186211,10.674695,9.257207,8.929822,8.800677,7.071055,8.260515,8.677149,5.127331,7.599151,8.71299,8.394522,7.919292,9.539521,7.432448,7.647569,7.943604,8.368063,7.31285,7.480284,6.081921,7.129651,8.170502,7.784259,7.796607,8.983064,7.686383,6.954219,7.660785,8.186583,9.115656,7.366563,8.284547,4.971741,7.587251,7.490552,9.113676,8.252766,7.847585,"EFS_G5"
"141","PALWVJ",7.338713,7.926773,7.912649,7.416949,9.156587,8.502344,6.722915,7.711941,8.180957,7.287367,7.979261,8.06566,8.276611,9.117269,7.664488,9.201022,7.039639,8.000507,9.122675,9.461534,9.682357,6.622409,9.508933,9.777277,8.762192,6.969745,9.165941,7.625287,6.776219,7.814931,8.68988,10.135716,9.17699,8.728042,8.596221,6.916772,7.886045,8.599593,5.452813,7.279738,8.264937,8.287521,8.325079,9.562416,7.6318,7.691586,7.667586,8.174212,6.867153,7.563612,6.062775,7.30247,8.114393,8.181838,8.174679,9.442338,7.775854,7.672206,8.074023,8.475629,9.236578,8.091418,9.139447,6.742537,7.585154,7.726,9.032313,8.949698,7.574268,"EFS_L5"
"142","PALWXP",6.909641,7.583075,7.33579,7.43148,8.671042,8.092352,6.29995,7.885375,7.68366,6.476224,7.677833,8.519591,7.815237,8.902529,7.284087,8.693298,7.896368,8.130919,8.197971,9.14351,9.895468,6.46827,8.368076,8.921571,8.521331,6.390057,8.923126,7.567959,6.853203,8.077904,8.464529,10.769573,10.039477,8.294703,8.275809,6.12455,7.908776,8.198887,5.067292,7.030344,8.440118,8.307583,7.525223,9.03885,7.34269,7.272222,7.688613,7.868856,7.096662,6.984551,5.722364,6.840537,7.74729,7.721412,7.624988,8.756683,7.297199,6.81448,7.128834,7.924877,8.816245,8.033909,8.548402,5.640661,7.279032,7.238133,8.364501,8.225598,7.127789,"EFS_G5"
"143","PALXTB",7.328728,6.948107,7.450202,7.499493,8.642803,7.662023,6.293495,7.323559,7.566195,6.381381,7.347789,7.874061,7.675694,7.933423,6.336743,9.040572,6.838482,7.321046,8.232633,9.121248,9.888602,6.214914,8.54223,8.832119,7.921416,6.528785,8.123596,6.712083,6.945842,7.799303,8.204318,10.314682,8.58098,7.929411,6.736353,6.124082,7.168477,7.562439,5.054161,7.362028,7.782839,8.167859,7.089009,8.895786,7.221724,6.991494,7.340054,7.764693,6.460544,6.954574,5.734212,6.579965,7.69646,7.95329,7.355736,8.423061,7.468756,6.701579,7.476024,8.391501,8.61473,7.541357,7.998779,5.481354,7.247087,7.060724,8.564257,8.515922,7.03689,"EFS_G5"
"144","PALXTE",6.725589,7.47271,7.503962,6.818995,9.092525,8.14937,6.713355,7.559686,7.594753,6.45191,7.549261,8.08943,7.705817,8.565539,6.593924,8.431135,7.660492,7.725572,8.027816,8.909663,9.551165,6.247982,8.435058,8.529927,8.194512,6.650773,8.073129,8.103372,6.698422,8.06482,8.310439,10.375828,7.37459,7.911066,7.53744,5.99164,7.442599,7.51513,5.164992,7.029634,8.141249,8.213142,7.206932,8.543033,7.175971,7.066109,7.37283,7.707588,6.859269,6.620802,5.622414,6.636246,7.37454,7.447862,7.430517,8.342922,7.407923,6.802716,7.084845,7.670231,8.563246,7.670531,8.300428,5.086878,7.238765,6.817859,8.246034,8.185412,6.521886,"EFS_G5"
"145","PALXUM",6.89728,7.293567,7.302413,6.760667,8.227444,8.243738,6.57537,7.51178,7.574387,7.496825,7.935469,7.813859,7.668309,8.328593,6.652386,9.041564,7.397659,7.272778,7.973653,9.019348,9.356909,6.246156,8.640277,8.777935,9.044254,6.577804,9.035835,8.981265,7.161672,7.917642,8.392659,10.71622,11.1104,7.887099,7.165444,6.499502,6.720548,8.095865,5.227004,7.546267,8.032326,8.269785,7.360381,8.739202,7.476641,6.922306,7.40345,7.700674,7.397692,6.814466,6.009232,6.436128,7.680877,7.816206,7.315775,8.256613,7.373781,6.75905,7.709955,8.435131,8.636629,8.42184,8.066057,5.322256,7.246037,6.881211,8.41862,8.624368,7.022659,"EFS_L5"
"146","PALYEC",7.388419,7.774208,7.743597,7.377009,9.472596,8.152996,6.797465,8.020579,7.938807,7.226389,7.875315,8.208166,8.149853,9.101104,8.017812,8.700524,7.824754,8.525031,8.221848,9.376224,10.109828,6.590405,8.910647,9.503305,8.554178,6.869868,8.59264,9.083336,6.769537,8.031462,8.843742,10.20996,8.839147,9.252356,8.678731,6.32827,8.211044,8.372241,5.689408,7.250809,8.495002,8.462276,8.059148,9.10872,7.691394,7.899674,7.711034,7.994394,7.591043,7.278506,5.761029,7.506903,8.379217,8.334036,7.89029,8.639545,7.913781,7.596137,7.616354,8.238983,9.126343,7.748465,8.584832,5.239276,7.457139,7.436582,9.035073,8.907821,7.033061,"EFS_L5"
"147","PALYLZ",7.140875,7.061445,7.198133,7.281489,9.570678,7.525259,6.35265,7.440005,7.774505,6.454804,7.542389,7.573805,8.347535,8.257096,7.020656,8.485186,7.113604,7.293379,7.860703,8.914156,9.915945,5.987404,8.76108,8.533066,7.869498,6.881331,7.921705,7.095829,6.444325,7.796417,8.337908,9.616652,9.189913,8.097787,7.146122,6.42437,7.325411,7.68533,5.240337,6.363652,8.173154,8.166154,7.859439,8.90483,7.455144,7.36272,7.40878,7.995499,6.537554,6.930944,5.401966,6.8061,7.507316,8.350814,7.724137,8.442125,7.629542,7.040494,7.228058,7.733443,8.72528,7.71908,7.795297,5.123759,7.513296,7.349562,8.68054,8.859261,6.831298,"EFS_G5"
"148","PALYPW",7.698713,7.040752,7.503094,8.47196,8.278399,7.299052,6.332775,7.317874,8.016037,6.075188,7.812481,8.051244,8.201325,7.701016,6.668715,8.573723,6.997106,7.361614,8.016486,8.555669,9.439016,6.119642,8.670417,8.643745,8.089965,7.00408,8.000708,7.87933,6.685369,7.483578,8.08023,10.407096,9.45549,7.854289,6.607194,6.037457,7.361536,7.500871,5.373162,7.496536,7.750575,8.361415,7.262979,9.050153,7.227912,7.251904,7.803416,7.938723,6.187067,6.975337,5.619222,6.28409,7.269066,7.902679,7.620873,8.448801,7.023662,7.398527,7.748073,7.226358,8.041129,7.309772,7.823615,5.099324,7.200461,7.224522,8.312161,8.643851,6.866671,"EFS_L5"
"149","PALZRG",7.069809,8.098828,8.478086,7.107532,9.601572,8.427435,6.914145,8.259052,7.680253,7.339641,7.961975,8.735394,8.320515,9.681291,8.153409,8.452676,7.949426,8.269161,8.51062,9.469134,10.012564,7.111051,9.058087,9.868235,8.364601,6.898893,9.01354,9.190193,7.066275,8.825222,8.923759,10.648595,9.82893,8.918838,8.934322,7.003938,8.205168,8.249042,5.392316,7.361094,8.557457,8.386998,8.248117,9.171919,7.70074,8.034254,7.951793,8.227174,8.283666,7.16946,5.946916,7.597344,8.261857,8.492514,7.736143,8.449918,7.705572,8.248804,7.937806,9.205273,9.250297,8.16225,8.716193,6.418702,7.306784,7.66625,9.322899,8.665011,7.025548,"EFS_L5"
"150","PALZZV",7.119084,7.774278,7.8901,6.525099,9.701803,8.610515,6.510175,7.813229,7.708882,7.178279,7.811931,7.927962,8.152517,9.116572,8.301245,8.30244,8.100699,8.238224,8.222658,9.30885,9.69279,6.559517,9.251832,9.616689,8.450043,7.052628,8.839748,6.844999,6.646853,8.203112,8.877291,9.992553,8.329853,9.376757,9.039287,6.49159,8.467463,8.124277,5.640888,7.405519,8.658881,8.066024,7.615227,9.013665,7.40297,7.857502,7.779256,8.275833,7.965826,7.106484,6.238721,7.013475,8.191816,8.387914,7.744814,8.626518,7.913814,8.153199,8.491264,8.181946,9.209966,7.965959,8.967336,5.245796,7.146324,7.425924,9.303883,8.915881,7.233463,"EFS_L5"
"151","PAMACS",7.00467,7.45472,8.120701,6.906016,8.934095,8.483673,6.297925,7.631243,7.79649,6.595162,7.998834,7.909335,8.238475,9.093111,6.974385,8.902888,7.023971,7.758255,8.840337,8.974651,9.962959,6.909653,9.36235,9.063597,8.185967,6.878381,8.785676,8.078764,7.118496,8.024099,8.583675,10.114502,10.573033,8.223638,8.075484,6.5254,7.580382,7.442116,5.284268,7.11025,8.458775,8.569003,7.752415,8.95693,7.758812,7.435055,7.469013,7.997538,7.279627,7.477084,5.921662,7.146193,7.973389,7.859621,7.631783,8.626689,7.68279,7.167293,7.737822,7.918674,8.72797,7.575973,8.587479,7.369984,7.483145,7.370419,8.621854,8.535059,7.190231,"EFS_L5"
"152","PAMAFV",7.387724,7.06889,7.417087,6.999521,8.795003,7.801304,6.62896,7.623397,7.955542,6.177603,7.448994,8.229211,8.027122,8.577834,7.236152,8.040358,6.848292,7.806515,7.771541,8.961998,9.560831,6.235706,8.611748,8.980822,7.836913,6.720901,8.423118,7.115579,6.549452,7.911434,8.652468,10.033302,9.977773,8.188524,8.08933,5.994467,7.330349,7.580213,5.324356,6.651252,8.10505,7.93129,7.736821,8.913519,7.36684,7.516839,7.683049,7.757503,6.478702,6.743168,5.529289,6.642353,7.232724,7.781875,7.739043,8.179361,7.456033,7.008961,7.241673,7.61081,8.645688,7.715211,8.088552,5.323683,7.547212,7.250884,8.569141,8.015107,6.84702,"EFS_G5"
"153","PAMAJT",7.138663,7.34404,7.087854,6.822082,7.894878,7.71447,6.67646,7.643307,8.339377,6.091527,7.107656,8.050476,7.796353,8.188061,7.044369,8.760831,6.849558,7.63074,7.735546,8.657298,8.687774,6.071813,8.453035,8.807626,7.150605,6.942574,7.92092,8.930588,6.280392,7.700585,8.233936,9.980624,8.578163,8.497006,7.671318,6.238125,7.113045,7.587083,5.434114,6.632263,8.260812,8.160038,7.288649,8.45811,7.524735,7.456093,7.336577,7.762597,5.798765,7.054901,5.913746,6.539832,7.341628,7.732054,7.948763,8.250164,7.576933,6.970622,7.022618,7.393389,8.529011,7.054404,7.676021,5.759722,7.212555,7.330794,7.990449,8.03671,6.733378,"EFS_G5"
"154","PAMBDH",7.069859,7.767107,7.908562,6.581739,9.47794,8.090849,6.70592,7.732294,8.13967,6.825305,7.672918,7.850885,7.704179,8.710897,7.724787,7.996603,7.626243,8.455818,8.093482,9.046511,9.23598,6.228783,9.233744,9.54696,8.237471,7.06336,8.889397,7.992886,5.943955,7.905659,8.756081,9.448948,8.752777,8.849927,8.846524,6.60281,8.145251,7.39491,5.435864,7.164157,8.708881,8.07086,7.179489,9.07307,7.578262,7.790642,7.758586,8.0583,7.58399,7.187344,6.159571,6.992988,8.231846,8.086962,7.878243,8.397641,8.088163,7.501872,8.529149,8.575599,9.036903,7.994885,8.396516,6.215441,7.387618,7.489184,9.725384,8.709955,6.897161,"EFS_G5"
"155","PAMBMJ",7.159571,7.577283,7.564862,7.667736,9.055043,8.237948,6.4233,8.232774,7.252032,7.148855,8.036396,8.153019,8.107427,9.04686,7.887718,8.52978,7.642202,8.049088,7.999835,9.210665,10.065379,6.632895,8.822202,9.20539,8.58521,6.549977,8.366541,7.747902,7.182506,8.453625,8.684337,10.577281,8.329947,8.595529,8.484616,6.810525,7.744757,8.144994,5.072406,7.119002,8.430514,8.232509,8.019055,9.164422,7.390418,7.704578,7.782959,7.947482,7.060364,7.065888,5.758802,7.214063,8.049396,8.16834,7.584067,8.194161,7.350673,7.277429,7.73473,8.054948,8.985374,7.908059,8.359415,5.478566,7.41224,7.255575,8.607277,8.911594,6.931449,"EFS_L5"
"156","PAMBYG",6.955201,7.733392,7.519592,6.689753,9.511457,8.216336,6.372275,7.40491,7.762317,6.867064,8.039757,7.571849,7.898943,8.385652,7.633453,8.395399,7.807085,7.77041,8.017148,8.969259,10.224882,6.631683,8.589435,8.744025,7.485947,6.849259,8.286085,8.972483,6.661789,7.905564,8.347859,9.975154,7.08454,8.41043,7.842094,6.190812,7.683449,8.017578,5.108452,6.978067,8.084604,7.996822,7.720582,8.700046,7.192861,7.322938,7.515692,7.514243,7.378391,6.794807,5.548791,6.414045,8.007063,8.103223,7.508101,8.095443,7.628396,7.228212,7.65712,7.66491,8.793597,7.876219,8.362382,5.010736,7.103977,7.047355,9.197377,8.956981,6.490518,"EFS_L5"
"157","PAMCXF",7.595142,7.576902,7.963685,7.369771,9.665461,7.651174,7.077205,7.256643,8.082822,8.125419,7.837607,8.174892,8.280345,8.788799,7.969843,8.303978,6.793923,7.985351,8.668534,9.803602,9.201817,6.344919,8.955924,9.279635,8.143703,6.962016,8.947804,8.727544,6.564701,7.794046,8.821901,10.296148,10.43896,8.88172,8.775154,6.727475,7.607688,8.144758,5.509014,7.353589,8.8236,8.961996,7.520952,9.259648,8.14227,7.592355,7.641592,7.892284,7.190345,6.999544,5.807701,7.114672,8.041753,8.454973,7.693057,8.909404,7.597254,7.545912,7.943551,8.45671,9.242644,8.666427,8.547385,6.610986,7.213776,7.93194,8.6763,9.402012,7.243888,"EFS_L5"
"158","PAMEHH",7.198285,7.502797,7.712034,7.968719,8.465918,8.004154,6.3088,7.297972,7.623192,6.752599,7.811804,7.730969,8.099797,8.213421,6.485825,8.96091,7.295153,6.867065,8.601189,8.675225,8.856499,6.204171,8.709368,9.640841,9.059086,6.781191,8.054871,7.024348,7.639168,7.82276,8.321271,10.476377,8.68297,7.668109,6.978446,6.353312,7.885006,7.922871,5.236569,8.809942,7.99849,8.090268,7.145156,9.101104,7.398704,6.845508,7.645469,7.946181,7.517131,7.115488,6.008793,6.29652,7.054789,7.428552,7.299549,8.237238,7.012759,7.272406,8.026247,7.735779,8.094606,7.190387,7.774114,6.3814,7.262323,7.130622,8.521616,7.924877,7.537144,"EFS_L5"
"159","PAMEZH",7.39026,7.333157,7.960983,7.4132,8.615818,8.144982,6.434135,7.511255,7.916658,6.576068,7.357963,7.877811,7.70933,8.527119,7.23356,8.768996,6.498446,7.725235,8.035433,9.01992,8.974484,6.168452,8.541247,9.631304,8.830607,7.044348,8.590438,8.080736,6.635671,7.975393,8.564934,10.146177,8.46803,8.305634,7.815282,6.246035,6.623706,7.309096,5.469591,7.741963,8.019513,8.074424,7.200303,9.128664,7.303524,7.425941,7.581929,7.785848,6.783408,6.974324,5.609212,6.569957,7.486666,7.631955,7.663401,8.706977,7.620925,7.121646,8.022209,9.229131,8.388031,7.520666,8.06633,5.734621,7.547897,7.135001,8.865161,8.392893,7.220758,"EFS_L5"
"160","PAMJED",7.226926,7.385095,7.547245,7.179398,9.429149,7.805735,7.130795,7.619768,8.085375,8.004465,7.554771,7.722761,8.049069,8.628745,8.328507,8.263687,7.486971,8.051455,8.216827,9.680556,9.655253,6.142323,8.547882,9.504635,8.193771,7.020045,8.734645,8.234504,6.296287,8.323101,9.001273,9.970708,8.592727,9.024546,8.32698,6.40496,7.576943,8.229109,5.454231,6.835653,8.419064,9.047358,7.569934,9.123132,7.974831,7.581869,7.773626,7.759147,7.462196,6.883806,5.349805,6.868623,8.548177,8.778115,8.13746,8.800807,7.711365,8.075605,8.346916,8.929635,9.379982,9.075963,8.253193,6.756006,7.264968,7.60707,8.680272,9.555124,7.091383,"EFS_L5"
"161","PAMLMY",7.172498,8.373583,7.855794,6.898258,9.593683,8.343333,6.95975,8.096252,8.127175,6.369153,7.420535,8.253439,8.180857,9.312554,8.195716,8.46281,6.405322,8.033382,8.644281,9.7431,8.99618,6.720482,9.333939,9.434198,7.766938,7.281829,9.56791,8.528826,6.352325,8.476439,8.938255,9.981192,9.77477,9.390182,8.940146,6.826958,7.713735,7.856829,5.388485,6.922682,8.34658,8.217099,7.653949,9.798832,7.309522,8.173236,7.605706,8.430058,6.480067,7.22048,5.45629,7.32306,8.388354,8.250668,7.838969,9.421896,7.67452,7.388096,7.565717,8.619256,9.464573,7.042895,8.602542,5.125219,7.374972,7.588404,8.623898,8.943106,7.440394,"EFS_G5"
"162","PAMLNB",7.915031,7.779572,8.066092,8.54842,8.935803,7.832535,6.329665,7.767959,7.623703,7.729538,8.109587,7.64004,8.138624,9.188745,6.799005,8.856007,7.99066,7.273521,8.794656,9.104395,9.685854,6.647864,8.855926,8.82163,9.037649,6.654403,8.439386,6.333993,6.902251,8.229112,8.578398,10.908131,8.825693,8.121446,6.867862,7.286072,7.917211,7.921136,5.266257,9.088209,8.343821,8.464508,7.745731,9.211031,8.064838,7.140145,7.982731,8.177203,6.677612,7.445524,6.087527,6.854443,7.69394,7.91275,7.501887,8.494741,7.253475,7.567356,7.922305,8.21412,8.212185,7.467046,7.955143,5.086054,7.831098,6.986038,8.631736,8.642563,7.409067,"EFS_G5"
"163","PAMMXF",7.115212,7.852822,7.827365,7.368614,10.233641,8.751786,6.49521,8.303859,7.526133,7.393409,8.104394,8.126922,8.300387,9.425665,8.23129,8.689905,8.658829,8.311898,8.67879,9.638966,10.519692,7.563141,9.101366,9.937178,8.376776,6.26773,9.127919,9.665612,7.260658,8.278816,8.859388,10.504848,9.728504,9.07511,8.599539,6.783363,8.717504,8.818276,5.335868,7.306154,9.130002,9.197927,8.614108,9.586603,8.087332,7.862405,8.138922,8.002904,7.88928,7.639207,6.917187,7.085802,8.802168,8.727532,7.893576,8.966975,8.057971,7.935248,8.404428,8.849951,9.327059,8.339633,8.842329,5.785209,7.468867,7.30117,9.501605,9.311121,7.327887,"EFS_L5"
"164","PAMMYR",7.561139,7.4805,7.75878,8.559058,8.789728,7.604116,6.23034,7.782767,7.844813,6.611857,7.701323,8.507546,8.348382,8.413089,7.46608,8.171985,7.122402,8.146752,8.165289,9.007387,9.293874,6.473826,8.775712,8.920939,8.358638,6.897542,8.383641,7.614085,6.110834,8.172369,8.809461,9.779005,9.841123,8.327375,8.131289,6.426298,7.700092,7.649582,5.453354,7.22148,8.542655,8.560778,7.699888,9.336175,7.53818,7.722342,8.014342,8.080641,6.767178,7.189003,5.883468,6.97345,7.939822,8.208616,7.693189,8.618335,7.327266,7.412698,7.065075,7.771238,8.642099,8.296769,8.442492,5.195626,7.66704,7.360513,8.574786,9.030878,6.930768,"EFS_L5"
"165","PAMNAL",7.739278,7.371433,7.498473,7.519903,9.439331,7.816149,5.94819,7.81092,7.588873,7.065706,7.908537,9.184158,8.623561,8.787992,7.718624,8.614076,6.655673,7.966695,8.102813,9.278528,9.466969,6.821452,8.744164,9.123543,7.901542,6.589727,9.473923,8.374816,6.559606,8.231642,8.710852,10.779781,10.7619,8.411678,7.830126,6.513258,7.388634,7.890467,5.442816,7.349214,8.800234,8.58574,8.118237,8.894623,7.63557,7.652413,7.552443,7.967713,6.804227,7.086684,5.785664,6.73221,8.137273,8.640341,7.709614,8.642482,7.495032,7.458466,7.498473,8.503314,8.920035,8.381266,8.390417,8.107493,7.297336,7.276485,8.462438,9.215562,6.96028,"EFS_G5"
"166","PAMNLH",7.371118,7.764977,7.977462,7.531648,9.528525,7.94137,6.519765,7.442515,7.990987,6.600707,7.391031,7.626294,8.735072,8.982343,7.426651,8.332844,6.748996,8.132788,8.664525,9.167227,9.066,6.997834,8.846587,8.318795,7.629731,7.199067,8.873374,6.443988,6.815228,8.073225,8.664705,9.908787,11.147834,8.105425,7.955542,6.551093,7.08291,7.441932,5.320935,6.41329,7.949095,8.139063,7.87269,8.858642,7.374835,7.807044,7.360435,7.946362,6.461367,7.036615,5.357855,6.642095,7.266074,8.071201,7.780712,9.003237,7.689371,7.180921,8.101295,7.423811,8.592647,7.805371,8.602372,8.417854,7.937109,7.7466,9.060862,8.962792,6.860874,"EFS_L5"
"167","PAMVCL",7.056086,7.338588,7.314823,6.985071,8.207488,7.429583,6.51516,7.210734,8.265315,6.515692,7.969535,8.024301,8.246557,8.587319,7.115497,9.174348,7.56105,7.558527,7.944464,9.074196,9.733484,6.272084,8.635966,8.85864,7.578531,6.869806,7.857262,7.432687,6.475297,7.755044,8.140931,10.142314,8.903407,8.325547,7.967193,6.598685,7.421303,8.308767,5.48882,6.895673,8.760454,8.431819,8.09504,8.697911,7.978825,7.453597,7.509792,8.024177,6.772343,7.208597,6.058389,6.607707,7.889816,8.220559,7.918931,8.71153,7.716249,6.984706,7.304609,7.436718,8.443387,7.854942,8.18001,5.679619,7.23632,7.547377,8.472593,8.701732,7.040635,"EFS_G5"
"168","PAMXWF",6.969856,7.539577,7.652964,6.831367,9.657506,7.812468,5.99718,7.774554,7.757447,7.290786,7.68761,7.838065,8.616615,8.522831,7.908802,8.789157,6.795223,7.634743,8.337069,9.227692,9.822551,6.287729,8.870888,9.659463,9.269949,6.720525,8.728734,6.522986,6.860876,8.484525,8.692797,9.966709,10.584934,8.55825,8.250398,5.82682,7.475193,8.361889,5.144866,7.560204,8.458182,8.556714,8.015897,9.195365,7.689008,7.750556,7.485596,7.876452,7.257077,7.037983,5.808879,7.199526,8.182926,8.675299,7.695941,9.385413,7.595951,6.875379,7.828061,8.269329,9.326969,8.493429,8.663049,5.835564,7.506173,7.460397,8.809205,9.343256,7.215756,"EFS_L5"
"169","PAMYCE",7.131114,7.180602,7.352026,7.394924,8.571257,7.249269,6.59449,7.488577,8.333512,6.367604,7.212209,8.323744,8.003387,8.325827,7.560669,8.483168,6.47041,7.854423,7.347192,8.808194,8.699814,6.510294,8.660782,9.102073,8.038085,7.063246,8.307219,6.315547,5.829742,7.461453,8.234927,10.127874,10.908233,8.497195,8.076845,6.601483,6.820428,7.407461,5.554722,6.839107,8.241087,7.723245,7.544958,8.7,7.475113,7.862604,7.564686,8.040254,6.560875,7.197524,5.673534,7.038042,7.431717,8.043564,8.090293,8.30239,7.707504,7.171876,7.54777,7.644612,8.853566,7.27966,7.96908,6.544686,7.194008,7.41008,8.360483,8.167371,7.094933,"EFS_L5"
"170","PAMYVA",7.546236,7.259815,7.479385,6.890393,8.659657,7.613633,6.60435,7.277137,7.913803,6.803423,7.594495,8.026552,7.763901,8.001422,7.23122,7.60647,6.28065,7.627135,7.963482,8.389439,8.852108,5.675445,8.420924,8.902153,7.608305,7.017052,7.863171,7.203106,6.502919,7.512327,8.311575,9.492859,7.759807,8.140419,7.690081,6.147423,6.973784,7.324246,5.446866,7.038744,7.841359,7.910804,7.428429,8.449177,7.055143,7.432092,7.229601,7.800966,6.453859,6.61905,5.592833,6.620342,7.452909,7.681674,7.621399,8.515549,7.362573,6.936746,7.677185,7.429975,8.686192,7.292595,8.288603,4.890172,7.255405,7.160147,8.212754,8.126089,6.698665,"EFS_G5"
"171","PAMZCE",7.195343,7.812268,7.944624,6.585474,9.085907,8.254849,6.856505,8.135945,8.577152,6.721029,7.270214,7.531626,7.891,8.257584,7.283229,8.345012,7.637988,7.93361,7.98617,9.171014,9.512674,6.390595,8.964988,9.130506,7.976014,7.108648,8.159948,10.183011,6.379375,8.094914,8.083197,9.44384,9.403323,8.679325,8.140078,6.624377,7.773098,7.750672,5.696275,6.645734,7.892739,7.479761,7.193642,8.609556,7.523442,7.55116,7.412632,8.051552,7.058765,7.10097,6.334772,6.833244,7.911567,7.882169,7.824164,8.242396,7.973446,7.665615,7.635654,8.289829,8.833135,7.249367,8.033916,4.849366,7.265621,7.462319,9.486901,8.246961,6.946843,"EFS_G5"
"172","PAMZMG",7.279801,8.165632,8.03729,7.05138,9.713695,8.636897,6.74961,8.051103,8.249995,7.519595,7.842814,8.206347,7.946023,9.006086,8.320302,9.149933,8.241774,8.231877,8.278029,9.749222,10.237514,6.662138,9.349612,10.130812,8.20578,6.908497,9.295872,9.300278,6.386871,8.111602,8.915279,10.149251,10.609433,9.32344,8.913215,6.29431,8.339888,8.973545,5.252224,7.221623,9.272191,8.919679,8.127961,9.557815,8.89504,7.962202,7.886269,8.203032,7.593342,7.434412,6.652308,7.101302,8.90078,8.402192,8.166489,8.902212,8.371539,7.938065,8.384134,8.694165,9.591374,7.878428,8.73102,5.565891,7.112925,7.706281,9.736711,8.671738,7.173523,"EFS_L5"
"173","PAMZYM",7.088096,7.091375,7.390121,7.883194,8.842196,7.746905,5.992675,7.257349,7.745228,6.652514,7.876264,8.502786,7.747852,8.44318,7.607629,8.348869,6.94796,7.863102,8.146646,8.674907,9.572738,6.555425,8.640969,8.265841,7.822514,6.499495,8.170766,7.444336,6.59289,7.913217,8.496196,10.517444,7.874283,8.095926,8.297709,5.887393,7.700228,7.795073,5.424722,7.258858,8.563886,8.430158,7.639839,8.850131,7.276791,7.49525,7.668195,7.638327,6.920261,6.534238,5.40322,6.955186,7.943333,8.268101,7.524109,8.776464,7.212154,6.990919,7.08827,7.365637,8.722102,8.064035,8.631851,4.947189,7.145543,7.359556,8.218297,8.522399,7.065588,"EFS_G5"
"174","PANBJH",7.22299,7.354593,7.689969,6.908131,9.360791,7.518746,6.219205,7.372682,7.767233,6.956719,7.624418,8.327576,8.251933,8.205573,7.776,8.441179,6.325946,7.84195,8.223342,8.701597,9.183087,6.250092,8.795863,9.206141,7.855165,7.003261,7.914646,6.810688,6.596995,7.773564,8.638795,9.603052,7.352593,8.358611,8.109709,6.283635,7.548766,7.689735,5.223542,7.166208,8.408571,8.360498,7.705756,9.035378,7.534098,7.804423,7.554998,7.978446,6.642012,7.077105,5.889326,6.986753,7.639736,8.322013,7.65776,8.845788,7.460067,7.055486,7.771958,7.595944,8.907591,7.473738,8.176098,5.12162,7.400999,7.572284,8.700393,8.759811,7.024311,"EFS_L5"
"175","PANBMJ",7.575815,7.445735,7.518674,8.097343,7.729466,7.49765,6.543195,7.451438,8.627392,6.248919,7.32847,7.953601,7.915792,7.962879,6.304738,8.780672,6.25408,7.194204,8.06293,8.837367,8.823531,5.871332,8.675555,8.501255,7.993728,7.008165,7.493758,7.076021,6.269095,7.645454,8.089332,9.709203,10.035933,7.883953,7.106868,6.69559,7.05221,7.272771,5.585164,6.943303,7.760834,7.634443,7.10798,8.797668,7.500119,7.396114,7.540662,7.906861,5.92305,6.89221,5.919551,6.431228,7.10185,7.638385,7.636402,8.553376,7.266269,7.193936,7.679417,7.572026,8.219737,6.963948,7.730994,6.085296,7.385895,7.448867,8.423245,7.532256,7.195156,"EFS_L5"
"176","PANBSP",6.844469,7.564532,8.383936,6.681863,9.51623,8.997791,6.7122,8.338042,7.693428,6.387295,8.605042,8.079608,8.193503,9.583553,7.524038,9.525198,8.59608,8.256148,9.410429,9.382844,10.820112,7.650228,9.474627,8.917553,8.787447,6.398818,9.179267,8.642762,7.799591,8.750583,8.803015,11.082123,10.75379,8.630487,7.974307,6.744673,8.595352,8.730921,5.227041,7.772666,8.801702,8.814365,8.467122,9.563723,8.089274,7.661115,7.675417,8.196353,8.295563,7.480186,6.253465,6.963169,8.251193,7.950496,7.748781,9.067324,7.497338,8.281807,7.737768,7.264275,8.810136,8.279951,9.075239,6.921969,7.463002,7.431882,9.143842,8.29599,7.169549,"EFS_L5"
"177","PANCYF",6.980512,7.589635,7.686205,7.768124,9.042404,8.284553,6.887185,7.7618,8.173978,7.081643,7.907392,8.019292,7.790975,8.450991,7.30155,8.934596,7.915066,7.738678,8.320832,9.05383,9.654606,6.680603,8.879631,8.747359,8.153208,6.881522,8.320455,9.611762,7.071545,7.97766,8.61401,10.479479,10.9222,8.37331,8.246569,6.909025,7.99442,8.337121,5.512468,7.324392,8.490917,8.229929,7.741963,8.949806,7.77939,7.695098,7.794809,7.812252,7.154143,7.340444,6.154229,6.767997,7.776646,7.717451,7.889763,8.335143,7.781386,7.446265,8.138544,8.086469,8.707288,7.866132,8.188124,6.297436,7.233915,7.369445,8.952457,8.79779,7.38733,"EFS_L5"
"178","PANDHZ",7.351461,7.014218,7.646561,8.258076,8.309571,7.117195,6.48452,7.123949,7.838325,6.627559,7.438469,8.233952,8.19145,8.272921,7.331384,8.701437,6.78246,7.621747,8.079093,8.829213,9.29432,6.585904,8.665077,7.842217,8.158108,6.856426,8.583945,7.594274,6.163983,7.244177,8.449838,10.271091,10.558033,8.111287,7.999542,6.710482,7.435637,7.760131,5.406773,6.941524,7.842803,8.081769,7.17324,9.120218,7.30023,7.317615,7.453663,7.807183,6.393054,6.963608,5.656853,6.576874,7.426609,7.97734,7.660042,8.576475,7.002681,7.399249,7.563602,8.023968,8.665073,7.794371,8.25672,7.434768,7.833307,7.50555,7.949737,8.374429,6.894978,"EFS_L5"
"179","PANGTS",6.88495,7.470227,7.525424,6.733856,8.971553,7.946472,5.901895,7.196837,7.657858,6.883628,7.619517,7.835597,7.751036,8.116043,7.435717,8.016908,6.44789,7.40993,8.410769,8.737055,9.409298,6.006614,8.749925,8.663802,8.099507,6.788687,8.880072,7.42926,7.049702,7.944461,8.354501,9.828706,10.053673,7.825078,8.209172,5.76775,7.398769,7.879043,5.305836,7.086437,8.207,8.257623,7.522229,8.996046,7.183484,7.191363,7.329761,7.598553,7.476647,6.95933,5.183668,6.772347,8.240035,8.226666,7.315438,9.093009,7.278699,6.648893,7.418224,8.218452,8.597875,8.374987,8.810888,5.895687,7.151382,7.22354,8.328114,9.347497,6.597808,"EFS_G5"
"180","PANHUA",7.196826,7.45188,7.51651,7.477674,9.135755,7.71326,6.39041,7.330753,7.709818,6.388151,7.418168,8.077697,8.114141,8.076465,7.320668,8.002524,6.624147,7.51796,7.888454,8.72473,9.158281,6.14787,8.597379,8.485243,7.807767,7.139443,7.751777,7.111269,6.260018,7.626569,8.268426,9.45249,7.886943,7.672061,7.8516,6.644355,7.272339,7.47376,5.609723,7.135313,8.213703,8.174097,7.530824,8.806149,7.186984,7.380179,7.282984,7.585283,6.661676,6.775455,5.568704,6.59981,7.677669,8.066321,7.501212,8.549778,7.255745,6.965696,7.631935,7.110158,8.394085,7.83148,8.345122,5.063593,7.195521,7.255662,8.41373,8.766033,6.821313,"EFS_L5"
"181","PANLSG",7.185479,7.626703,7.522942,6.936794,9.213428,7.839658,6.43566,9.109019,8.111435,6.351791,7.433656,7.855852,8.009235,8.134268,7.386263,7.502726,6.895673,7.927243,7.818243,9.021569,9.719555,6.158822,8.836654,9.321141,8.474494,6.999909,8.050824,8.615331,6.514591,9.341571,8.297014,9.500374,8.705557,8.345282,7.709204,6.4726,7.709383,7.737922,5.409658,6.625694,8.23741,8.001407,7.367964,8.948264,7.444432,7.571368,7.599006,7.901075,7.058154,6.714,5.914729,6.968119,7.948553,7.971998,7.828606,8.262241,7.525445,7.152311,7.421735,8.391015,8.894968,7.809307,8.221727,5.642111,7.439778,7.464882,9.027778,8.058417,6.611568,"EFS_L5"
"182","PANNIJ",7.521823,7.813376,8.018028,7.831917,9.213264,8.214018,6.712045,7.88895,8.334352,6.761845,8.084917,7.915793,8.004089,8.964662,7.690569,8.675724,7.524814,7.732449,7.765833,8.997204,9.646833,6.313396,9.137916,9.220001,8.477137,7.128893,8.637057,8.582039,6.903089,7.759749,8.451843,10.1575,8.487433,8.466607,8.282569,6.37092,7.442728,8.284984,5.749851,7.51686,8.286162,8.006416,7.792553,9.267184,7.589593,7.498326,8.215306,8.01015,7.224231,6.996963,6.039453,6.78616,8.17658,8.006652,7.919698,8.5083,7.723774,7.457454,7.983376,9.102215,8.785011,8.102534,8.336202,6.838799,7.370574,7.36387,9.211545,8.794623,7.057591,"EFS_L5"
"183","PANRRW",7.700461,7.322567,7.446922,7.430674,8.853795,7.719046,6.61161,7.410651,7.692983,6.600753,7.950999,8.383076,7.665961,8.141367,7.135084,8.32393,6.12464,7.618012,8.396166,9.132574,8.737068,5.963757,8.736887,9.317532,8.438363,6.599037,7.953985,6.378769,6.524736,7.86936,8.360353,9.854245,8.213443,8.171321,7.441985,5.97489,7.260171,7.584776,5.275777,7.681503,8.129385,8.095517,7.453584,9.016052,7.276565,7.342119,7.62952,7.698395,6.803731,6.702245,5.653494,6.67924,7.855085,8.017686,7.492979,8.843626,7.26154,6.927602,7.697609,7.881898,8.813672,7.711804,8.237537,5.192531,7.232823,7.266311,8.599065,8.527279,7.156975,"EFS_L5"
"184","PANUKV",6.95353,7.888725,8.549374,6.978292,9.07199,9.144883,6.83097,8.503681,7.950565,7.770402,8.442642,8.576659,7.599317,10.042637,8.379858,9.608673,8.798196,8.37553,8.345758,9.797131,10.478181,7.146136,9.42519,10.128183,8.697589,6.576317,9.360954,8.465035,7.693526,8.687734,9.43556,10.218628,7.33081,9.407019,9.753108,6.262,8.443607,9.038798,5.1811,7.501831,9.233506,8.872749,8.146147,9.712029,7.829177,7.430752,8.186213,8.308747,8.052969,7.76425,6.681641,7.245818,9.169974,8.005441,8.072943,8.817653,8.154645,7.772061,8.399902,9.748268,9.475354,8.245178,9.207497,4.577916,7.455641,7.488636,10.11292,8.427117,7.349296,"EFS_L5"
"185","PANUVK",7.382198,7.429965,7.472249,7.949441,8.505602,7.547156,6.62277,7.548197,8.332055,7.086829,8.094156,8.012018,8.299769,9.007486,7.549195,9.119067,6.656239,7.626568,8.472767,9.369848,10.055569,6.326669,8.469951,9.248436,8.923769,6.848616,9.067552,7.904146,6.992069,8.320762,8.248928,11.191359,11.137167,8.372006,8.383379,6.975773,7.532184,8.455415,5.422334,7.079453,8.268487,8.140221,7.361675,8.620076,7.79483,7.408574,7.695764,7.810608,7.358047,7.268796,5.652537,6.96772,8.271635,8.189209,7.6718,8.752475,7.422216,7.399108,7.453024,9.101774,8.694182,9.078201,8.330138,8.900689,7.263376,7.434831,8.249505,9.143347,7.228138,"EFS_G5"
"186","PANVAN",7.762471,7.513252,7.706974,8.509442,8.323924,7.157209,6.72384,7.300201,8.346855,6.279653,7.17975,7.78851,8.306899,8.072507,7.111344,7.707445,6.808169,7.73964,7.618026,8.588932,9.238377,5.741778,8.399502,8.384731,7.828077,7.187756,7.543493,7.229161,5.780591,7.484185,8.218367,10.176745,7.743987,8.04958,7.191681,6.47189,6.850564,7.329987,5.719107,6.860097,7.86402,8.056689,6.940057,8.985494,7.348235,7.490962,7.60405,7.920229,6.332634,7.0204,5.702098,6.687159,7.656708,7.848531,7.72262,8.071124,7.301481,7.341167,7.02904,7.582591,8.116749,7.996132,7.387148,5.508137,7.40434,7.275899,8.032676,8.553789,6.820057,"EFS_L5"
"187","PANYGR",6.996513,7.39879,7.880733,6.905034,9.038079,8.488711,7.072845,7.688223,8.253585,6.720095,8.285014,8.574251,8.426177,9.431691,7.983202,9.282695,6.843426,7.921225,9.697603,9.179683,9.943737,6.835338,9.523538,9.295613,7.92793,6.886937,8.858071,7.99033,6.896277,8.105477,8.679699,10.806478,10.00563,8.880276,8.658616,7.114503,8.207579,7.997661,5.437678,7.415433,8.588828,8.478744,7.835786,8.985216,7.769153,7.906765,7.776313,8.073133,7.101619,7.789954,5.951373,7.102419,8.34361,8.248723,7.901503,9.339139,7.753133,7.37345,7.635897,8.312681,9.055971,7.758952,9.205728,5.956459,7.485858,7.719177,8.791473,9.124059,7.524615,"EFS_L5"
"188","PANZHT",7.052694,7.435043,7.512076,7.728208,8.324166,7.89387,6.749875,7.527709,8.097708,6.668604,7.682263,8.080384,7.993915,8.401071,7.451829,8.654843,6.712679,7.439659,8.059365,9.25936,9.003022,6.097316,8.799104,9.100205,8.120895,6.93264,8.339169,7.055911,6.389861,7.890364,8.276078,10.433666,9.457957,8.562349,8.058414,6.805462,7.672971,7.795705,5.365669,7.070895,8.265899,7.917205,7.561281,8.798261,7.44145,7.660275,7.627272,7.97574,6.690905,7.187324,5.612024,6.940295,7.885133,8.054813,7.755615,8.309719,7.459621,7.432024,7.443842,7.960081,8.797813,7.627503,8.092665,6.058858,7.356152,7.428082,8.37164,8.43059,7.027847,"EFS_G5"
"189","PANZPV",6.841998,7.334797,7.264751,7.266606,8.21583,7.866958,6.732225,7.572028,7.942525,6.324333,7.992958,7.831544,8.079863,8.291506,7.052464,8.855954,6.42819,7.223191,8.559302,8.779225,9.157749,6.01706,8.624426,8.807779,8.520871,6.843815,8.557926,7.604712,7.302795,7.846813,8.14546,10.300085,10.678267,8.340553,7.9464,6.577845,7.415268,7.976317,5.164837,7.438234,8.036089,7.856494,7.428387,8.870037,7.431436,7.377406,7.565814,7.907787,6.849819,6.973566,5.798005,6.836091,7.54082,8.056569,7.650418,8.426987,7.420116,6.776942,7.15043,8.37478,8.565391,7.548197,7.899889,6.410007,7.580888,7.360031,8.224124,8.415109,6.784455,"EFS_L5"
